0	-0.00854492	
0.001	0.00152588	
0.002	0.0140381	
0.003	0.0280762	
0.004	0.0424194	
0.005	0.0558472	
0.006	0.0671387	
0.007	0.0753784	
0.008	0.0796509	
0.009	0.0793457	
0.01	0.0753784	
0.011	0.0683594	
0.012	0.0592041	
0.013	0.0491333	
0.014	0.0390625	
0.015	0.0305176	
0.016	0.0244141	
0.017	0.0219727	
0.018	0.0238037	
0.019	0.0299072	
0.02	0.039978	
0.021	0.0527954	
0.022	0.067749	
0.023	0.0836182	
0.024	0.0994873	
0.025	0.113831	
0.026	0.125427	
0.027	0.133667	
0.028	0.137329	
0.029	0.137024	
0.03	0.133362	
0.031	0.126648	
0.032	0.117798	
0.033	0.108643	
0.034	0.0997925	
0.035	0.0924683	
0.036	0.0875854	
0.037	0.0866699	
0.038	0.0897217	
0.039	0.0967407	
0.04	0.107117	
0.041	0.119324	
0.042	0.133057	
0.043	0.146484	
0.044	0.158997	
0.045	0.169678	
0.046	0.177307	
0.047	0.180969	
0.048	0.180969	
0.049	0.176697	
0.05	0.169678	
0.051	0.160217	
0.052	0.149536	
0.053	0.13855	
0.054	0.128784	
0.055	0.12085	
0.056	0.115662	
0.057	0.114746	
0.058	0.118103	
0.059	0.125427	
0.06	0.136108	
0.061	0.148926	
0.062	0.162659	
0.063	0.176086	
0.064	0.187988	
0.065	0.197144	
0.066	0.202332	
0.067	0.203247	
0.068	0.199585	
0.069	0.192566	
0.07	0.1828	
0.071	0.170898	
0.072	0.158386	
0.073	0.146484	
0.074	0.136108	
0.075	0.128174	
0.076	0.123901	
0.077	0.123596	
0.078	0.127258	
0.079	0.133972	
0.08	0.142517	
0.081	0.152283	
0.082	0.161743	
0.083	0.169678	
0.084	0.175476	
0.085	0.177612	
0.086	0.175476	
0.087	0.169067	
0.088	0.158691	
0.089	0.145874	
0.09	0.13092	
0.091	0.114746	
0.092	0.098877	
0.093	0.0839233	
0.094	0.0714111	
0.095	0.0616455	
0.096	0.0561523	
0.097	0.0549316	
0.098	0.057373	
0.099	0.0628662	
0.1	0.0701904	
0.101	0.0787354	
0.102	0.0869751	
0.103	0.0939941	
0.104	0.0982666	
0.105	0.098877	
0.106	0.0949097	
0.107	0.0866699	
0.108	0.0747681	
0.109	0.0595093	
0.11	0.0424194	
0.111	0.0244141	
0.112	0.00732422	
0.113	-0.0088501	
0.114	-0.0222778	
0.115	-0.0320435	
0.116	-0.0372314	
0.117	-0.038147	
0.118	-0.0354004	
0.119	-0.0299072	
0.12	-0.0222778	
0.121	-0.0137329	
0.122	-0.00549316	
0.123	0.00152588	
0.124	0.00640869	
0.125	0.00732422	
0.126	0.00427246	
0.127	-0.00274658	
0.128	-0.0131226	
0.129	-0.0256348	
0.13	-0.0396729	
0.131	-0.0534058	
0.132	-0.0662231	
0.133	-0.0769043	
0.134	-0.0845337	
0.135	-0.0881958	
0.136	-0.0875854	
0.137	-0.083313	
0.138	-0.0756836	
0.139	-0.0662231	
0.14	-0.055542	
0.141	-0.0448608	
0.142	-0.0354004	
0.143	-0.0280762	
0.144	-0.0241089	
0.145	-0.0238037	
0.146	-0.0280762	
0.147	-0.0354004	
0.148	-0.0457764	
0.149	-0.0579834	
0.15	-0.0704956	
0.151	-0.0827026	
0.152	-0.0933838	
0.153	-0.101013	
0.154	-0.105286	
0.155	-0.10498	
0.156	-0.100403	
0.157	-0.0924683	
0.158	-0.0820923	
0.159	-0.0695801	
0.16	-0.0567627	
0.161	-0.0445557	
0.162	-0.0341797	
0.163	-0.0265503	
0.164	-0.0231934	
0.165	-0.0241089	
0.166	-0.0296021	
0.167	-0.0384521	
0.168	-0.0500488	
0.169	-0.0628662	
0.17	-0.0759888	
0.171	-0.0878906	
0.172	-0.0979614	
0.173	-0.104675	
0.174	-0.107422	
0.175	-0.105286	
0.176	-0.0991821	
0.177	-0.0900269	
0.178	-0.0784302	
0.179	-0.065918	
0.18	-0.0531006	
0.181	-0.0415039	
0.182	-0.0320435	
0.183	-0.0259399	
0.184	-0.0238037	
0.185	-0.0256348	
0.186	-0.0314331	
0.187	-0.0396729	
0.188	-0.0500488	
0.189	-0.0613403	
0.19	-0.0723267	
0.191	-0.0823975	
0.192	-0.0900269	
0.193	-0.0949097	
0.194	-0.09552	
0.195	-0.0924683	
0.196	-0.0860596	
0.197	-0.0765991	
0.198	-0.0656128	
0.199	-0.0534058	
0.2	-0.0415039	
0.201	-0.0311279	
0.202	-0.0231934	
0.203	-0.0189209	
0.204	-0.0192261	
0.205	-0.0234985	
0.206	-0.0308228	
0.207	-0.0408936	
0.208	-0.0518799	
0.209	-0.0631714	
0.21	-0.0732422	
0.211	-0.0811768	
0.212	-0.0863647	
0.213	-0.0872803	
0.214	-0.0836182	
0.215	-0.0762939	
0.216	-0.0656128	
0.217	-0.0531006	
0.218	-0.039978	
0.219	-0.0268555	
0.22	-0.0152588	
0.221	-0.00610352	
0.222	-0.000305176	
0.223	0.000915527	
0.224	-0.00183105	
0.225	-0.0088501	
0.226	-0.0192261	
0.227	-0.0314331	
0.228	-0.0445557	
0.229	-0.0576782	
0.23	-0.0692749	
0.231	-0.0784302	
0.232	-0.0845337	
0.233	-0.0863647	
0.234	-0.0839233	
0.235	-0.0778198	
0.236	-0.0683594	
0.237	-0.0570679	
0.238	-0.0445557	
0.239	-0.0323486	
0.24	-0.0213623	
0.241	-0.0131226	
0.242	-0.0088501	
0.243	-0.00854492	
0.244	-0.0128174	
0.245	-0.0201416	
0.246	-0.0302124	
0.247	-0.0411987	
0.248	-0.0524902	
0.249	-0.062561	
0.25	-0.071106	
0.251	-0.0765991	
0.252	-0.0784302	
0.253	-0.0759888	
0.254	-0.0698853	
0.255	-0.06073	
0.256	-0.0494385	
0.257	-0.0366211	
0.258	-0.0238037	
0.259	-0.0119019	
0.26	-0.00213623	
0.261	0.00457764	
0.262	0.00732422	
0.263	0.00518799	
0.264	-0.000915527	
0.265	-0.0100708	
0.266	-0.0213623	
0.267	-0.0338745	
0.268	-0.0457764	
0.269	-0.0561523	
0.27	-0.0640869	
0.271	-0.0686646	
0.272	-0.0686646	
0.273	-0.0646973	
0.274	-0.057373	
0.275	-0.0469971	
0.276	-0.0350952	
0.277	-0.022583	
0.278	-0.010376	
0.279	0.000305176	
0.28	0.00823975	
0.281	0.0128174	
0.282	0.0131226	
0.283	0.00946045	
0.284	0.00183105	
0.285	-0.00823975	
0.286	-0.0204468	
0.287	-0.032959	
0.288	-0.045166	
0.289	-0.0552368	
0.29	-0.062561	
0.291	-0.0656128	
0.292	-0.0646973	
0.293	-0.0592041	
0.294	-0.0506592	
0.295	-0.039978	
0.296	-0.0274658	
0.297	-0.0152588	
0.298	-0.00366211	
0.299	0.00549316	
0.3	0.012207	
0.301	0.0146484	
0.302	0.0125122	
0.303	0.00671387	
0.304	-0.00213623	
0.305	-0.0131226	
0.306	-0.0253296	
0.307	-0.0375366	
0.308	-0.0482178	
0.309	-0.0567627	
0.31	-0.0622559	
0.311	-0.0637817	
0.312	-0.0613403	
0.313	-0.0552368	
0.314	-0.0460815	
0.315	-0.03479	
0.316	-0.0222778	
0.317	-0.0100708	
0.318	0.000915527	
0.319	0.0088501	
0.32	0.0131226	
0.321	0.0131226	
0.322	0.00854492	
0.323	0	
0.324	-0.0109863	
0.325	-0.0234985	
0.326	-0.0369263	
0.327	-0.0491333	
0.328	-0.0592041	
0.329	-0.0665283	
0.33	-0.0698853	
0.331	-0.0689697	
0.332	-0.0640869	
0.333	-0.0561523	
0.334	-0.0457764	
0.335	-0.0341797	
0.336	-0.0219727	
0.337	-0.010376	
0.338	-0.000610352	
0.339	0.00610352	
0.34	0.0088501	
0.341	0.00732422	
0.342	0.00183105	
0.343	-0.00701904	
0.344	-0.0180054	
0.345	-0.0305176	
0.346	-0.0427246	
0.347	-0.0537109	
0.348	-0.062561	
0.349	-0.0680542	
0.35	-0.0692749	
0.351	-0.0665283	
0.352	-0.0598145	
0.353	-0.050354	
0.354	-0.0387573	
0.355	-0.0259399	
0.356	-0.0131226	
0.357	-0.0012207	
0.358	0.00823975	
0.359	0.0140381	
0.36	0.0152588	
0.361	0.0125122	
0.362	0.00579834	
0.363	-0.00366211	
0.364	-0.0146484	
0.365	-0.0265503	
0.366	-0.0378418	
0.367	-0.0473022	
0.368	-0.0540161	
0.369	-0.0570679	
0.37	-0.0558472	
0.371	-0.0509644	
0.372	-0.0427246	
0.373	-0.0320435	
0.374	-0.0201416	
0.375	-0.00793457	
0.376	0.00335693	
0.377	0.0125122	
0.378	0.0186157	
0.379	0.0204468	
0.38	0.0180054	
0.381	0.0119019	
0.382	0.00244141	
0.383	-0.00946045	
0.384	-0.0228882	
0.385	-0.0363159	
0.386	-0.0485229	
0.387	-0.0585938	
0.388	-0.0650024	
0.389	-0.0671387	
0.39	-0.0646973	
0.391	-0.0582886	
0.392	-0.0488281	
0.393	-0.0372314	
0.394	-0.0244141	
0.395	-0.0115967	
0.396	-0.000305176	
0.397	0.00915527	
0.398	0.0149536	
0.399	0.0164795	
0.4	0.0140381	
0.401	0.00762939	
0.402	-0.0012207	
0.403	-0.012207	
0.404	-0.0238037	
0.405	-0.0350952	
0.406	-0.0448608	
0.407	-0.0521851	
0.408	-0.0558472	
0.409	-0.0552368	
0.41	-0.0506592	
0.411	-0.0424194	
0.412	-0.0320435	
0.413	-0.0204468	
0.414	-0.00854492	
0.415	0.00244141	
0.416	0.0115967	
0.417	0.017395	
0.418	0.0192261	
0.419	0.0167847	
0.42	0.010376	
0.421	0.000915527	
0.422	-0.0106812	
0.423	-0.0234985	
0.424	-0.0363159	
0.425	-0.0476074	
0.426	-0.0567627	
0.427	-0.0622559	
0.428	-0.0634766	
0.429	-0.0598145	
0.43	-0.0524902	
0.431	-0.0418091	
0.432	-0.0289917	
0.433	-0.0149536	
0.434	-0.000610352	
0.435	0.0128174	
0.436	0.0241089	
0.437	0.0320435	
0.438	0.0360107	
0.439	0.0357056	
0.44	0.0317383	
0.441	0.0247192	
0.442	0.0152588	
0.443	0.00488281	
0.444	-0.00549316	
0.445	-0.0143433	
0.446	-0.0213623	
0.447	-0.0247192	
0.448	-0.0238037	
0.449	-0.0192261	
0.45	-0.0112915	
0.451	-0.000915527	
0.452	0.0109863	
0.453	0.0234985	
0.454	0.0354004	
0.455	0.0457764	
0.456	0.0537109	
0.457	0.0579834	
0.458	0.0585938	
0.459	0.0552368	
0.46	0.0491333	
0.461	0.0408936	
0.462	0.0314331	
0.463	0.0219727	
0.464	0.0134277	
0.465	0.00671387	
0.466	0.00305176	
0.467	0.00335693	
0.468	0.00762939	
0.469	0.0161743	
0.47	0.0274658	
0.471	0.0405884	
0.472	0.0546265	
0.473	0.0683594	
0.474	0.0802612	
0.475	0.0897217	
0.476	0.09552	
0.477	0.0967407	
0.478	0.0930786	
0.479	0.085144	
0.48	0.0741577	
0.481	0.0610352	
0.482	0.0466919	
0.483	0.0326538	
0.484	0.0201416	
0.485	0.010376	
0.486	0.00457764	
0.487	0.00335693	
0.488	0.00640869	
0.489	0.0128174	
0.49	0.0219727	
0.491	0.0326538	
0.492	0.0439453	
0.493	0.0543213	
0.494	0.0631714	
0.495	0.0686646	
0.496	0.0701904	
0.497	0.0671387	
0.498	0.0595093	
0.499	0.0479126	
0.5	0.0338745	
0.501	0.0186157	
0.502	0.00335693	
0.503	-0.0106812	
0.504	-0.0228882	
0.505	-0.0320435	
0.506	-0.0372314	
0.507	-0.0375366	
0.508	-0.0341797	
0.509	-0.0274658	
0.51	-0.0183105	
0.511	-0.00762939	
0.512	0.00366211	
0.513	0.0137329	
0.514	0.0216675	
0.515	0.0265503	
0.516	0.0271606	
0.517	0.0234985	
0.518	0.0164795	
0.519	0.00671387	
0.52	-0.00488281	
0.521	-0.0170898	
0.522	-0.0289917	
0.523	-0.039978	
0.524	-0.0485229	
0.525	-0.0540161	
0.526	-0.0552368	
0.527	-0.0524902	
0.528	-0.0463867	
0.529	-0.0372314	
0.53	-0.0259399	
0.531	-0.0140381	
0.532	-0.00244141	
0.533	0.00762939	
0.534	0.0149536	
0.535	0.0183105	
0.536	0.017395	
0.537	0.0119019	
0.538	0.00305176	
0.539	-0.0088501	
0.54	-0.0219727	
0.541	-0.0354004	
0.542	-0.0476074	
0.543	-0.0579834	
0.544	-0.0653076	
0.545	-0.0686646	
0.546	-0.0674438	
0.547	-0.0622559	
0.548	-0.0540161	
0.549	-0.043335	
0.55	-0.0314331	
0.551	-0.0192261	
0.552	-0.00762939	
0.553	0.00183105	
0.554	0.00823975	
0.555	0.010376	
0.556	0.00823975	
0.557	0.00213623	
0.558	-0.00671387	
0.559	-0.0180054	
0.56	-0.0299072	
0.561	-0.0411987	
0.562	-0.0512695	
0.563	-0.0588989	
0.564	-0.0628662	
0.565	-0.0628662	
0.566	-0.0585938	
0.567	-0.0509644	
0.568	-0.0405884	
0.569	-0.0283813	
0.57	-0.015564	
0.571	-0.00335693	
0.572	0.00701904	
0.573	0.0149536	
0.574	0.0192261	
0.575	0.0186157	
0.576	0.0140381	
0.577	0.00610352	
0.578	-0.00488281	
0.579	-0.0170898	
0.58	-0.0296021	
0.581	-0.0408936	
0.582	-0.050354	
0.583	-0.0567627	
0.584	-0.0588989	
0.585	-0.0558472	
0.586	-0.0482178	
0.587	-0.0360107	
0.588	-0.0204468	
0.589	-0.00152588	
0.59	0.0198364	
0.591	0.0427246	
0.592	0.0665283	
0.593	0.0909424	
0.594	0.115051	
0.595	0.13916	
0.596	0.164185	
0.597	0.19104	
0.598	0.221252	
0.599	0.256042	
0.6	0.296631	
0.601	0.343933	
0.602	0.39856	
0.603	0.46051	
0.604	0.52887	
0.605	0.602722	
0.606	0.679932	
0.607	0.757751	
0.608	0.834351	
0.609	0.907593	
0.61	0.975037	
0.611	1.03394	
0.612	1.08185	
0.613	1.11603	
0.614	1.13464	
0.615	1.13678	
0.616	1.12335	
0.617	1.09558	
0.618	1.05438	
0.619	1.0022	
0.62	0.940857	
0.621	0.872498	
0.622	0.79895	
0.623	0.723267	
0.624	0.646667	
0.625	0.570679	
0.626	0.495911	
0.627	0.422974	
0.628	0.352478	
0.629	0.285034	
0.63	0.220337	
0.631	0.159607	
0.632	0.102234	
0.633	0.0485229	
0.634	-0.0012207	
0.635	-0.0466919	
0.636	-0.0869751	
0.637	-0.12146	
0.638	-0.149841	
0.639	-0.171814	
0.64	-0.187073	
0.641	-0.195618	
0.642	-0.197449	
0.643	-0.191956	
0.644	-0.180054	
0.645	-0.162964	
0.646	-0.141907	
0.647	-0.118103	
0.648	-0.0933838	
0.649	-0.0692749	
0.65	-0.0473022	
0.651	-0.0283813	
0.652	-0.0146484	
0.653	-0.00640869	
0.654	-0.00427246	
0.655	-0.00732422	
0.656	-0.0146484	
0.657	-0.0253296	
0.658	-0.038147	
0.659	-0.0512695	
0.66	-0.0637817	
0.661	-0.0741577	
0.662	-0.0811768	
0.663	-0.0839233	
0.664	-0.0827026	
0.665	-0.0784302	
0.666	-0.071106	
0.667	-0.0619507	
0.668	-0.0521851	
0.669	-0.0424194	
0.67	-0.0338745	
0.671	-0.027771	
0.672	-0.0253296	
0.673	-0.0265503	
0.674	-0.0314331	
0.675	-0.0393677	
0.676	-0.0491333	
0.677	-0.0595093	
0.678	-0.0698853	
0.679	-0.0787354	
0.68	-0.085144	
0.681	-0.088501	
0.682	-0.0878906	
0.683	-0.0830078	
0.684	-0.0744629	
0.685	-0.0631714	
0.686	-0.050354	
0.687	-0.0363159	
0.688	-0.0231934	
0.689	-0.0112915	
0.69	-0.00213623	
0.691	0.00366211	
0.692	0.00518799	
0.693	0.00244141	
0.694	-0.00396729	
0.695	-0.0134277	
0.696	-0.0244141	
0.697	-0.0360107	
0.698	-0.0469971	
0.699	-0.0561523	
0.7	-0.0628662	
0.701	-0.0656128	
0.702	-0.0640869	
0.703	-0.0585938	
0.704	-0.0491333	
0.705	-0.0372314	
0.706	-0.0234985	
0.707	-0.00946045	
0.708	0.00396729	
0.709	0.015564	
0.71	0.0241089	
0.711	0.0289917	
0.712	0.0289917	
0.713	0.0250244	
0.714	0.0177002	
0.715	0.00762939	
0.716	-0.00366211	
0.717	-0.0152588	
0.718	-0.0259399	
0.719	-0.0341797	
0.72	-0.0396729	
0.721	-0.0408936	
0.722	-0.038147	
0.723	-0.0314331	
0.724	-0.0219727	
0.725	-0.0100708	
0.726	0.00244141	
0.727	0.0149536	
0.728	0.0262451	
0.729	0.0354004	
0.73	0.0411987	
0.731	0.0427246	
0.732	0.0402832	
0.733	0.03479	
0.734	0.0265503	
0.735	0.0164795	
0.736	0.00610352	
0.737	-0.00366211	
0.738	-0.0115967	
0.739	-0.0164795	
0.74	-0.0180054	
0.741	-0.0149536	
0.742	-0.00823975	
0.743	0.00213623	
0.744	0.0146484	
0.745	0.0289917	
0.746	0.0436401	
0.747	0.0576782	
0.748	0.0698853	
0.749	0.0799561	
0.75	0.0860596	
0.751	0.0881958	
0.752	0.0863647	
0.753	0.0808716	
0.754	0.0726318	
0.755	0.062561	
0.756	0.0524902	
0.757	0.043335	
0.758	0.0363159	
0.759	0.0323486	
0.76	0.0326538	
0.761	0.0372314	
0.762	0.0457764	
0.763	0.057373	
0.764	0.071106	
0.765	0.0860596	
0.766	0.101013	
0.767	0.114441	
0.768	0.125732	
0.769	0.133362	
0.77	0.137024	
0.771	0.136414	
0.772	0.131836	
0.773	0.124512	
0.774	0.115051	
0.775	0.10498	
0.776	0.09552	
0.777	0.0875854	
0.778	0.0823975	
0.779	0.0808716	
0.78	0.0836182	
0.781	0.0906372	
0.782	0.100708	
0.783	0.113525	
0.784	0.127869	
0.785	0.142517	
0.786	0.15686	
0.787	0.169067	
0.788	0.178528	
0.789	0.184326	
0.79	0.185242	
0.791	0.182495	
0.792	0.176392	
0.793	0.167542	
0.794	0.157471	
0.795	0.147095	
0.796	0.137634	
0.797	0.13031	
0.798	0.125732	
0.799	0.125427	
0.8	0.129395	
0.801	0.137329	
0.802	0.148621	
0.803	0.162048	
0.804	0.176392	
0.805	0.19104	
0.806	0.204468	
0.807	0.215149	
0.808	0.222473	
0.809	0.224915	
0.81	0.222473	
0.811	0.216064	
0.812	0.205994	
0.813	0.193787	
0.814	0.180664	
0.815	0.167542	
0.816	0.155945	
0.817	0.146484	
0.818	0.140686	
0.819	0.138855	
0.82	0.141296	
0.821	0.14679	
0.822	0.154724	
0.823	0.16449	
0.824	0.175171	
0.825	0.185242	
0.826	0.193787	
0.827	0.199585	
0.828	0.202026	
0.829	0.200195	
0.83	0.194397	
0.831	0.184937	
0.832	0.172729	
0.833	0.158997	
0.834	0.144653	
0.835	0.13092	
0.836	0.119019	
0.837	0.109863	
0.838	0.10437	
0.839	0.102844	
0.84	0.105286	
0.841	0.110168	
0.842	0.117493	
0.843	0.125427	
0.844	0.133667	
0.845	0.140381	
0.846	0.144958	
0.847	0.146179	
0.848	0.142822	
0.849	0.135193	
0.85	0.123596	
0.851	0.108948	
0.852	0.0921631	
0.853	0.0747681	
0.854	0.0576782	
0.855	0.0418091	
0.856	0.0283813	
0.857	0.0186157	
0.858	0.0128174	
0.859	0.0112915	
0.86	0.0131226	
0.861	0.0180054	
0.862	0.0244141	
0.863	0.0320435	
0.864	0.0393677	
0.865	0.0454712	
0.866	0.0491333	
0.867	0.0491333	
0.868	0.045166	
0.869	0.0369263	
0.87	0.0250244	
0.871	0.0106812	
0.872	-0.00549316	
0.873	-0.0216675	
0.874	-0.0369263	
0.875	-0.0497437	
0.876	-0.0592041	
0.877	-0.0643921	
0.878	-0.0650024	
0.879	-0.0613403	
0.88	-0.0543213	
0.881	-0.0448608	
0.882	-0.0338745	
0.883	-0.022583	
0.884	-0.012207	
0.885	-0.00366211	
0.886	0.00183105	
0.887	0.00305176	
0.888	0	
0.889	-0.00701904	
0.89	-0.017395	
0.891	-0.0299072	
0.892	-0.0436401	
0.893	-0.0570679	
0.894	-0.0692749	
0.895	-0.0793457	
0.896	-0.0857544	
0.897	-0.0878906	
0.898	-0.0854492	
0.899	-0.0793457	
0.9	-0.0704956	
0.901	-0.0595093	
0.902	-0.0479126	
0.903	-0.0369263	
0.904	-0.0271606	
0.905	-0.0204468	
0.906	-0.0170898	
0.907	-0.0183105	
0.908	-0.0234985	
0.909	-0.0320435	
0.91	-0.0427246	
0.911	-0.0546265	
0.912	-0.0671387	
0.913	-0.0784302	
0.914	-0.0881958	
0.915	-0.0949097	
0.916	-0.0976562	
0.917	-0.0961304	
0.918	-0.0906372	
0.919	-0.0817871	
0.92	-0.0704956	
0.921	-0.0576782	
0.922	-0.0445557	
0.923	-0.0320435	
0.924	-0.0216675	
0.925	-0.0140381	
0.926	-0.0109863	
0.927	-0.0125122	
0.928	-0.0180054	
0.929	-0.0265503	
0.93	-0.0375366	
0.931	-0.0497437	
0.932	-0.0622559	
0.933	-0.0732422	
0.934	-0.0823975	
0.935	-0.0881958	
0.936	-0.0897217	
0.937	-0.0869751	
0.938	-0.0805664	
0.939	-0.071106	
0.94	-0.0598145	
0.941	-0.0473022	
0.942	-0.03479	
0.943	-0.0238037	
0.944	-0.0152588	
0.945	-0.0106812	
0.946	-0.0106812	
0.947	-0.0149536	
0.948	-0.0228882	
0.949	-0.0332642	
0.95	-0.0454712	
0.951	-0.0579834	
0.952	-0.0695801	
0.953	-0.0793457	
0.954	-0.0860596	
0.955	-0.0894165	
0.956	-0.0881958	
0.957	-0.0830078	
0.958	-0.0747681	
0.959	-0.0640869	
0.96	-0.0518799	
0.961	-0.0390625	
0.962	-0.0271606	
0.963	-0.0167847	
0.964	-0.00976562	
0.965	-0.00671387	
0.966	-0.00793457	
0.967	-0.0134277	
0.968	-0.0216675	
0.969	-0.0320435	
0.97	-0.0436401	
0.971	-0.0549316	
0.972	-0.0650024	
0.973	-0.072937	
0.974	-0.0778198	
0.975	-0.0787354	
0.976	-0.0753784	
0.977	-0.0683594	
0.978	-0.0585938	
0.979	-0.0463867	
0.98	-0.0332642	
0.981	-0.0204468	
0.982	-0.00915527	
0.983	-0.000305176	
0.984	0.00518799	
0.985	0.00610352	
0.986	0.00244141	
0.987	-0.00457764	
0.988	-0.0146484	
0.989	-0.0262451	
0.99	-0.0384521	
0.991	-0.0500488	
0.992	-0.0601196	
0.993	-0.0671387	
0.994	-0.0704956	
0.995	-0.0695801	
0.996	-0.0646973	
0.997	-0.0561523	
0.998	-0.045166	
0.999	-0.0323486	
1	-0.0192261	
1.001	-0.00701904	
1.002	0.00366211	
1.003	0.0109863	
1.004	0.0140381	
1.005	0.0125122	
1.006	0.00701904	
1.007	-0.00183105	
1.008	-0.0128174	
1.009	-0.0247192	
1.01	-0.0366211	
1.011	-0.0469971	
1.012	-0.0552368	
1.013	-0.0604248	
1.014	-0.0616455	
1.015	-0.0582886	
1.016	-0.0515747	
1.017	-0.0418091	
1.018	-0.0305176	
1.019	-0.0180054	
1.02	-0.00579834	
1.021	0.00488281	
1.022	0.0137329	
1.023	0.0189209	
1.024	0.0201416	
1.025	0.0167847	
1.026	0.00976562	
1.027	-0.000305176	
1.028	-0.012207	
1.029	-0.0247192	
1.03	-0.0366211	
1.031	-0.0466919	
1.032	-0.0543213	
1.033	-0.0579834	
1.034	-0.0576782	
1.035	-0.0527954	
1.036	-0.0445557	
1.037	-0.0338745	
1.038	-0.0213623	
1.039	-0.00793457	
1.04	0.00457764	
1.041	0.0152588	
1.042	0.0231934	
1.043	0.0268555	
1.044	0.0256348	
1.045	0.0204468	
1.046	0.0115967	
1.047	0.000610352	
1.048	-0.0119019	
1.049	-0.0244141	
1.05	-0.0354004	
1.051	-0.0448608	
1.052	-0.0509644	
1.053	-0.0534058	
1.054	-0.0515747	
1.055	-0.0457764	
1.056	-0.0369263	
1.057	-0.0256348	
1.058	-0.0128174	
1.059	-0.000305176	
1.06	0.0112915	
1.061	0.0204468	
1.062	0.0265503	
1.063	0.0283813	
1.064	0.0256348	
1.065	0.0192261	
1.066	0.0100708	
1.067	-0.0012207	
1.068	-0.0134277	
1.069	-0.0253296	
1.07	-0.0357056	
1.071	-0.0436401	
1.072	-0.0482178	
1.073	-0.0485229	
1.074	-0.0445557	
1.075	-0.0372314	
1.076	-0.0271606	
1.077	-0.0152588	
1.078	-0.00305176	
1.079	0.00823975	
1.08	0.0180054	
1.081	0.0244141	
1.082	0.0271606	
1.083	0.0250244	
1.084	0.0192261	
1.085	0.0100708	
1.086	-0.00152588	
1.087	-0.0140381	
1.088	-0.0268555	
1.089	-0.0384521	
1.09	-0.0476074	
1.091	-0.0537109	
1.092	-0.0558472	
1.093	-0.0537109	
1.094	-0.0479126	
1.095	-0.0387573	
1.096	-0.027771	
1.097	-0.0152588	
1.098	-0.00274658	
1.099	0.00854492	
1.1	0.017395	
1.101	0.022583	
1.102	0.0238037	
1.103	0.0201416	
1.104	0.0128174	
1.105	0.00213623	
1.106	-0.0106812	
1.107	-0.0244141	
1.108	-0.0375366	
1.109	-0.0488281	
1.11	-0.0576782	
1.111	-0.0622559	
1.112	-0.0622559	
1.113	-0.0579834	
1.114	-0.0494385	
1.115	-0.0384521	
1.116	-0.0253296	
1.117	-0.0119019	
1.118	0.000915527	
1.119	0.012207	
1.12	0.0204468	
1.121	0.0250244	
1.122	0.0253296	
1.123	0.0213623	
1.124	0.0137329	
1.125	0.00366211	
1.126	-0.00793457	
1.127	-0.0201416	
1.128	-0.0311279	
1.129	-0.0402832	
1.13	-0.0466919	
1.131	-0.0491333	
1.132	-0.0476074	
1.133	-0.0421143	
1.134	-0.0338745	
1.135	-0.0231934	
1.136	-0.0112915	
1.137	0.000915527	
1.138	0.012207	
1.139	0.0213623	
1.14	0.0274658	
1.141	0.0296021	
1.142	0.027771	
1.143	0.0219727	
1.144	0.0131226	
1.145	0.00244141	
1.146	-0.00946045	
1.147	-0.0213623	
1.148	-0.0317383	
1.149	-0.0396729	
1.15	-0.0445557	
1.151	-0.045166	
1.152	-0.0418091	
1.153	-0.0350952	
1.154	-0.0256348	
1.155	-0.0143433	
1.156	-0.00244141	
1.157	0.0088501	
1.158	0.0186157	
1.159	0.0253296	
1.16	0.0283813	
1.161	0.0268555	
1.162	0.0213623	
1.163	0.0125122	
1.164	0.00152588	
1.165	-0.0109863	
1.166	-0.0231934	
1.167	-0.0341797	
1.168	-0.0430298	
1.169	-0.0488281	
1.17	-0.0506592	
1.171	-0.0479126	
1.172	-0.0411987	
1.173	-0.0317383	
1.174	-0.0198364	
1.175	-0.00640869	
1.176	0.00701904	
1.177	0.0195312	
1.178	0.0299072	
1.179	0.0369263	
1.18	0.0393677	
1.181	0.0375366	
1.182	0.0317383	
1.183	0.022583	
1.184	0.0115967	
1.185	-0.000305176	
1.186	-0.0112915	
1.187	-0.0204468	
1.188	-0.0268555	
1.189	-0.0302124	
1.19	-0.0292969	
1.191	-0.0244141	
1.192	-0.0161743	
1.193	-0.00457764	
1.194	0.0088501	
1.195	0.0234985	
1.196	0.0375366	
1.197	0.0497437	
1.198	0.0592041	
1.199	0.0650024	
1.2	0.0662231	
1.201	0.0628662	
1.202	0.0561523	
1.203	0.0463867	
1.204	0.0350952	
1.205	0.0228882	
1.206	0.0112915	
1.207	0.00152588	
1.208	-0.00518799	
1.209	-0.00823975	
1.21	-0.00671387	
1.211	-0.000915527	
1.212	0.00854492	
1.213	0.0204468	
1.214	0.0344849	
1.215	0.0488281	
1.216	0.062561	
1.217	0.0744629	
1.218	0.083313	
1.219	0.0881958	
1.22	0.0888062	
1.221	0.0854492	
1.222	0.0790405	
1.223	0.0701904	
1.224	0.0598145	
1.225	0.0497437	
1.226	0.0408936	
1.227	0.0341797	
1.228	0.0308228	
1.229	0.0314331	
1.23	0.0363159	
1.231	0.0442505	
1.232	0.0549316	
1.233	0.0671387	
1.234	0.0796509	
1.235	0.0918579	
1.236	0.102234	
1.237	0.109558	
1.238	0.112915	
1.239	0.111694	
1.24	0.106201	
1.241	0.0967407	
1.242	0.0842285	
1.243	0.0698853	
1.244	0.0549316	
1.245	0.0402832	
1.246	0.0271606	
1.247	0.0164795	
1.248	0.00946045	
1.249	0.00610352	
1.25	0.00671387	
1.251	0.0100708	
1.252	0.0158691	
1.253	0.0228882	
1.254	0.0302124	
1.255	0.0369263	
1.256	0.0421143	
1.257	0.0442505	
1.258	0.0430298	
1.259	0.0375366	
1.26	0.0286865	
1.261	0.0170898	
1.262	0.00396729	
1.263	-0.0100708	
1.264	-0.0238037	
1.265	-0.0357056	
1.266	-0.045166	
1.267	-0.0509644	
1.268	-0.0521851	
1.269	-0.0491333	
1.27	-0.0418091	
1.271	-0.0317383	
1.272	-0.0192261	
1.273	-0.00579834	
1.274	0.00732422	
1.275	0.0186157	
1.276	0.0274658	
1.277	0.0323486	
1.278	0.0326538	
1.279	0.0286865	
1.28	0.0210571	
1.281	0.0100708	
1.282	-0.00244141	
1.283	-0.0158691	
1.284	-0.0286865	
1.285	-0.0396729	
1.286	-0.0482178	
1.287	-0.0527954	
1.288	-0.0527954	
1.289	-0.0491333	
1.29	-0.0418091	
1.291	-0.0323486	
1.292	-0.0213623	
1.293	-0.00976562	
1.294	0.0012207	
1.295	0.0106812	
1.296	0.0170898	
1.297	0.0198364	
1.298	0.0183105	
1.299	0.0131226	
1.3	0.00457764	
1.301	-0.00640869	
1.302	-0.0186157	
1.303	-0.0305176	
1.304	-0.0415039	
1.305	-0.0500488	
1.306	-0.055542	
1.307	-0.0564575	
1.308	-0.0534058	
1.309	-0.0463867	
1.31	-0.0366211	
1.311	-0.0247192	
1.312	-0.0115967	
1.313	0.00152588	
1.314	0.0131226	
1.315	0.0222778	
1.316	0.0280762	
1.317	0.0296021	
1.318	0.0265503	
1.319	0.0198364	
1.32	0.0100708	
1.321	-0.00183105	
1.322	-0.0149536	
1.323	-0.0274658	
1.324	-0.0387573	
1.325	-0.0476074	
1.326	-0.0531006	
1.327	-0.0543213	
1.328	-0.0515747	
1.329	-0.0454712	
1.33	-0.0366211	
1.331	-0.0262451	
1.332	-0.0146484	
1.333	-0.00366211	
1.334	0.00640869	
1.335	0.0137329	
1.336	0.0180054	
1.337	0.0186157	
1.338	0.0161743	
1.339	0.012207	
1.34	0.00762939	
1.341	0.00396729	
1.342	0.00305176	
1.343	0.00640869	
1.344	0.015564	
1.345	0.0320435	
1.346	0.0567627	
1.347	0.0906372	
1.348	0.133362	
1.349	0.184326	
1.35	0.24292	
1.351	0.308228	
1.352	0.378418	
1.353	0.452576	
1.354	0.528259	
1.355	0.603333	
1.356	0.675354	
1.357	0.743408	
1.358	0.806274	
1.359	0.863342	
1.36	0.914917	
1.361	0.960083	
1.362	0.999146	
1.363	1.03088	
1.364	1.0553	
1.365	1.07147	
1.366	1.08002	
1.367	1.08032	
1.368	1.07239	
1.369	1.0553	
1.37	1.02966	
1.371	0.994568	
1.372	0.950012	
1.373	0.895691	
1.374	0.831909	
1.375	0.758057	
1.376	0.675354	
1.377	0.585632	
1.378	0.491638	
1.379	0.395813	
1.38	0.301514	
1.381	0.211182	
1.382	0.127563	
1.383	0.0527954	
1.384	-0.0112915	
1.385	-0.0634766	
1.386	-0.102844	
1.387	-0.130005	
1.388	-0.146179	
1.389	-0.152893	
1.39	-0.151978	
1.391	-0.145264	
1.392	-0.134583	
1.393	-0.122375	
1.394	-0.110474	
1.395	-0.100403	
1.396	-0.0933838	
1.397	-0.0891113	
1.398	-0.0875854	
1.399	-0.0878906	
1.4	-0.0894165	
1.401	-0.0912476	
1.402	-0.0921631	
1.403	-0.0912476	
1.404	-0.0881958	
1.405	-0.0814819	
1.406	-0.0723267	
1.407	-0.0604248	
1.408	-0.0476074	
1.409	-0.0344849	
1.41	-0.0219727	
1.411	-0.0109863	
1.412	-0.00244141	
1.413	0.00305176	
1.414	0.00427246	
1.415	0.0012207	
1.416	-0.00579834	
1.417	-0.0161743	
1.418	-0.0283813	
1.419	-0.0418091	
1.42	-0.055542	
1.421	-0.067749	
1.422	-0.0778198	
1.423	-0.0845337	
1.424	-0.0872803	
1.425	-0.085144	
1.426	-0.0790405	
1.427	-0.0695801	
1.428	-0.0579834	
1.429	-0.0448608	
1.43	-0.0320435	
1.431	-0.0204468	
1.432	-0.0109863	
1.433	-0.00488281	
1.434	-0.00274658	
1.435	-0.00518799	
1.436	-0.0109863	
1.437	-0.0198364	
1.438	-0.0305176	
1.439	-0.0418091	
1.44	-0.0527954	
1.441	-0.0619507	
1.442	-0.0686646	
1.443	-0.0720215	
1.444	-0.0708008	
1.445	-0.0656128	
1.446	-0.0567627	
1.447	-0.0448608	
1.448	-0.0311279	
1.449	-0.0167847	
1.45	-0.00274658	
1.451	0.00946045	
1.452	0.0192261	
1.453	0.0247192	
1.454	0.0259399	
1.455	0.0228882	
1.456	0.0158691	
1.457	0.00579834	
1.458	-0.00549316	
1.459	-0.017395	
1.46	-0.0283813	
1.461	-0.0375366	
1.462	-0.0436401	
1.463	-0.0457764	
1.464	-0.0436401	
1.465	-0.0372314	
1.466	-0.027771	
1.467	-0.0158691	
1.468	-0.00274658	
1.469	0.0106812	
1.47	0.0228882	
1.471	0.0335693	
1.472	0.0408936	
1.473	0.0442505	
1.474	0.0430298	
1.475	0.038147	
1.476	0.0302124	
1.477	0.0198364	
1.478	0.00854492	
1.479	-0.00244141	
1.48	-0.0119019	
1.481	-0.0186157	
1.482	-0.0216675	
1.483	-0.0204468	
1.484	-0.0149536	
1.485	-0.00549316	
1.486	0.00640869	
1.487	0.0204468	
1.488	0.0350952	
1.489	0.0491333	
1.49	0.0619507	
1.491	0.0717163	
1.492	0.0778198	
1.493	0.0793457	
1.494	0.0765991	
1.495	0.0704956	
1.496	0.0619507	
1.497	0.0518799	
1.498	0.0415039	
1.499	0.0317383	
1.5	0.0234985	
1.501	0.0183105	
1.502	0.0167847	
1.503	0.0195312	
1.504	0.0262451	
1.505	0.0363159	
1.506	0.0488281	
1.507	0.0628662	
1.508	0.0772095	
1.509	0.090332	
1.51	0.101318	
1.511	0.109558	
1.512	0.113525	
1.513	0.113525	
1.514	0.109253	
1.515	0.102234	
1.516	0.0927734	
1.517	0.0823975	
1.518	0.0723267	
1.519	0.0634766	
1.52	0.0570679	
1.521	0.0546265	
1.522	0.0564575	
1.523	0.062561	
1.524	0.0726318	
1.525	0.0854492	
1.526	0.100403	
1.527	0.116272	
1.528	0.131531	
1.529	0.145569	
1.53	0.157166	
1.531	0.1651	
1.532	0.169067	
1.533	0.168457	
1.534	0.164185	
1.535	0.157166	
1.536	0.148315	
1.537	0.13855	
1.538	0.130005	
1.539	0.123291	
1.54	0.119324	
1.541	0.119324	
1.542	0.123291	
1.543	0.131226	
1.544	0.142212	
1.545	0.15564	
1.546	0.170593	
1.547	0.185547	
1.548	0.199585	
1.549	0.211182	
1.55	0.219727	
1.551	0.223999	
1.552	0.223694	
1.553	0.219116	
1.554	0.211487	
1.555	0.201111	
1.556	0.189514	
1.557	0.177917	
1.558	0.167847	
1.559	0.159607	
1.56	0.155029	
1.561	0.153809	
1.562	0.156555	
1.563	0.162964	
1.564	0.171814	
1.565	0.182495	
1.566	0.194092	
1.567	0.205383	
1.568	0.215149	
1.569	0.222168	
1.57	0.22583	
1.571	0.22522	
1.572	0.220032	
1.573	0.211182	
1.574	0.19928	
1.575	0.184937	
1.576	0.169983	
1.577	0.155334	
1.578	0.142517	
1.579	0.132751	
1.58	0.126648	
1.581	0.124817	
1.582	0.126648	
1.583	0.131836	
1.584	0.139465	
1.585	0.148621	
1.586	0.158081	
1.587	0.166626	
1.588	0.173645	
1.589	0.177002	
1.59	0.176392	
1.591	0.171204	
1.592	0.161743	
1.593	0.149231	
1.594	0.133972	
1.595	0.117493	
1.596	0.101013	
1.597	0.0854492	
1.598	0.0720215	
1.599	0.0619507	
1.6	0.0558472	
1.601	0.0540161	
1.602	0.0558472	
1.603	0.0604248	
1.604	0.0671387	
1.605	0.0747681	
1.606	0.0820923	
1.607	0.0875854	
1.608	0.0909424	
1.609	0.090332	
1.61	0.0857544	
1.611	0.0765991	
1.612	0.0643921	
1.613	0.0494385	
1.614	0.0326538	
1.615	0.015564	
1.616	-0.000915527	
1.617	-0.015564	
1.618	-0.0274658	
1.619	-0.0350952	
1.62	-0.0384521	
1.621	-0.0372314	
1.622	-0.0326538	
1.623	-0.0253296	
1.624	-0.0161743	
1.625	-0.00610352	
1.626	0.00305176	
1.627	0.0106812	
1.628	0.0158691	
1.629	0.0170898	
1.63	0.0140381	
1.631	0.00701904	
1.632	-0.00305176	
1.633	-0.0152588	
1.634	-0.0286865	
1.635	-0.0421143	
1.636	-0.0546265	
1.637	-0.0650024	
1.638	-0.0723267	
1.639	-0.0753784	
1.64	-0.0741577	
1.641	-0.0689697	
1.642	-0.06073	
1.643	-0.050354	
1.644	-0.0390625	
1.645	-0.0280762	
1.646	-0.0183105	
1.647	-0.0109863	
1.648	-0.00701904	
1.649	-0.00701904	
1.65	-0.0112915	
1.651	-0.0195312	
1.652	-0.0302124	
1.653	-0.0430298	
1.654	-0.0567627	
1.655	-0.0698853	
1.656	-0.0814819	
1.657	-0.090332	
1.658	-0.09552	
1.659	-0.0961304	
1.66	-0.0924683	
1.661	-0.085144	
1.662	-0.0753784	
1.663	-0.0637817	
1.664	-0.0515747	
1.665	-0.039978	
1.666	-0.0302124	
1.667	-0.0231934	
1.668	-0.0201416	
1.669	-0.020752	
1.67	-0.0256348	
1.671	-0.0335693	
1.672	-0.0442505	
1.673	-0.0564575	
1.674	-0.0686646	
1.675	-0.0796509	
1.676	-0.0881958	
1.677	-0.0933838	
1.678	-0.0942993	
1.679	-0.0906372	
1.68	-0.083313	
1.681	-0.0732422	
1.682	-0.0610352	
1.683	-0.0476074	
1.684	-0.03479	
1.685	-0.0234985	
1.686	-0.0146484	
1.687	-0.00946045	
1.688	-0.00854492	
1.689	-0.012207	
1.69	-0.0198364	
1.691	-0.0302124	
1.692	-0.0430298	
1.693	-0.0564575	
1.694	-0.0698853	
1.695	-0.0817871	
1.696	-0.0912476	
1.697	-0.0970459	
1.698	-0.0985718	
1.699	-0.0958252	
1.7	-0.0894165	
1.701	-0.0799561	
1.702	-0.0689697	
1.703	-0.0567627	
1.704	-0.0448608	
1.705	-0.0344849	
1.706	-0.0262451	
1.707	-0.0216675	
1.708	-0.0210571	
1.709	-0.0247192	
1.71	-0.0320435	
1.711	-0.0418091	
1.712	-0.0531006	
1.713	-0.0650024	
1.714	-0.0759888	
1.715	-0.0848389	
1.716	-0.0909424	
1.717	-0.0927734	
1.718	-0.0900269	
1.719	-0.083313	
1.72	-0.0732422	
1.721	-0.0610352	
1.722	-0.0473022	
1.723	-0.0335693	
1.724	-0.0213623	
1.725	-0.0115967	
1.726	-0.00488281	
1.727	-0.00244141	
1.728	-0.00427246	
1.729	-0.0100708	
1.73	-0.0186157	
1.731	-0.0292969	
1.732	-0.0405884	
1.733	-0.0518799	
1.734	-0.0613403	
1.735	-0.0689697	
1.736	-0.0726318	
1.737	-0.0723267	
1.738	-0.0680542	
1.739	-0.0604248	
1.74	-0.050354	
1.741	-0.0390625	
1.742	-0.0274658	
1.743	-0.0164795	
1.744	-0.00701904	
1.745	-0.000305176	
1.746	0.00244141	
1.747	0.0012207	
1.748	-0.00396729	
1.749	-0.012207	
1.75	-0.0228882	
1.751	-0.03479	
1.752	-0.0469971	
1.753	-0.0579834	
1.754	-0.0668335	
1.755	-0.072937	
1.756	-0.0744629	
1.757	-0.0717163	
1.758	-0.0643921	
1.759	-0.0537109	
1.76	-0.0405884	
1.761	-0.0262451	
1.762	-0.0119019	
1.763	0.0012207	
1.764	0.0119019	
1.765	0.0192261	
1.766	0.0219727	
1.767	0.0201416	
1.768	0.0143433	
1.769	0.00488281	
1.77	-0.00671387	
1.771	-0.0195312	
1.772	-0.0323486	
1.773	-0.0439453	
1.774	-0.0534058	
1.775	-0.0592041	
1.776	-0.06073	
1.777	-0.0576782	
1.778	-0.0509644	
1.779	-0.0411987	
1.78	-0.0299072	
1.781	-0.0177002	
1.782	-0.00610352	
1.783	0.00427246	
1.784	0.0119019	
1.785	0.0158691	
1.786	0.015564	
1.787	0.0109863	
1.788	0.00305176	
1.789	-0.00732422	
1.79	-0.0195312	
1.791	-0.0320435	
1.792	-0.0439453	
1.793	-0.0537109	
1.794	-0.06073	
1.795	-0.0637817	
1.796	-0.062561	
1.797	-0.0570679	
1.798	-0.0485229	
1.799	-0.0378418	
1.8	-0.0256348	
1.801	-0.0131226	
1.802	-0.00152588	
1.803	0.00793457	
1.804	0.0143433	
1.805	0.0167847	
1.806	0.0143433	
1.807	0.00793457	
1.808	-0.00213623	
1.809	-0.0140381	
1.81	-0.0271606	
1.811	-0.039978	
1.812	-0.0509644	
1.813	-0.0598145	
1.814	-0.0650024	
1.815	-0.065918	
1.816	-0.0622559	
1.817	-0.0549316	
1.818	-0.0445557	
1.819	-0.0320435	
1.82	-0.0189209	
1.821	-0.00640869	
1.822	0.00488281	
1.823	0.0137329	
1.824	0.0189209	
1.825	0.0198364	
1.826	0.0164795	
1.827	0.00915527	
1.828	-0.000610352	
1.829	-0.012207	
1.83	-0.0241089	
1.831	-0.0357056	
1.832	-0.045166	
1.833	-0.0518799	
1.834	-0.0549316	
1.835	-0.0537109	
1.836	-0.0488281	
1.837	-0.0408936	
1.838	-0.0308228	
1.839	-0.0195312	
1.84	-0.00793457	
1.841	0.00244141	
1.842	0.0109863	
1.843	0.0167847	
1.844	0.0183105	
1.845	0.0158691	
1.846	0.00976562	
1.847	0.000610352	
1.848	-0.010376	
1.849	-0.022583	
1.85	-0.0344849	
1.851	-0.045166	
1.852	-0.0534058	
1.853	-0.0582886	
1.854	-0.0592041	
1.855	-0.0558472	
1.856	-0.0485229	
1.857	-0.0387573	
1.858	-0.0268555	
1.859	-0.0140381	
1.86	-0.00152588	
1.861	0.00946045	
1.862	0.0177002	
1.863	0.0222778	
1.864	0.0222778	
1.865	0.0183105	
1.866	0.0100708	
1.867	-0.000610352	
1.868	-0.0131226	
1.869	-0.0262451	
1.87	-0.0384521	
1.871	-0.0488281	
1.872	-0.0564575	
1.873	-0.0601196	
1.874	-0.0598145	
1.875	-0.0549316	
1.876	-0.0469971	
1.877	-0.0360107	
1.878	-0.0234985	
1.879	-0.010376	
1.88	0.00183105	
1.881	0.012207	
1.882	0.0192261	
1.883	0.0222778	
1.884	0.020752	
1.885	0.0149536	
1.886	0.00610352	
1.887	-0.00488281	
1.888	-0.0170898	
1.889	-0.0292969	
1.89	-0.039978	
1.891	-0.0488281	
1.892	-0.0543213	
1.893	-0.0558472	
1.894	-0.0534058	
1.895	-0.0469971	
1.896	-0.0378418	
1.897	-0.0268555	
1.898	-0.0146484	
1.899	-0.00274658	
1.9	0.00793457	
1.901	0.0161743	
1.902	0.0213623	
1.903	0.0219727	
1.904	0.0189209	
1.905	0.0119019	
1.906	0.00244141	
1.907	-0.00915527	
1.908	-0.0213623	
1.909	-0.0326538	
1.91	-0.0424194	
1.911	-0.0494385	
1.912	-0.0524902	
1.913	-0.0515747	
1.914	-0.0466919	
1.915	-0.0384521	
1.916	-0.0274658	
1.917	-0.0149536	
1.918	-0.00183105	
1.919	0.010376	
1.92	0.0204468	
1.921	0.0274658	
1.922	0.0305176	
1.923	0.0283813	
1.924	0.022583	
1.925	0.0128174	
1.926	0.000915527	
1.927	-0.012207	
1.928	-0.0256348	
1.929	-0.0375366	
1.93	-0.0469971	
1.931	-0.0534058	
1.932	-0.0552368	
1.933	-0.0527954	
1.934	-0.0460815	
1.935	-0.0366211	
1.936	-0.0250244	
1.937	-0.012207	
1.938	0.000610352	
1.939	0.012207	
1.94	0.0213623	
1.941	0.0268555	
1.942	0.0280762	
1.943	0.0250244	
1.944	0.0183105	
1.945	0.00823975	
1.946	-0.00335693	
1.947	-0.0158691	
1.948	-0.027771	
1.949	-0.038147	
1.95	-0.0454712	
1.951	-0.0491333	
1.952	-0.0488281	
1.953	-0.0442505	
1.954	-0.0366211	
1.955	-0.0262451	
1.956	-0.0140381	
1.957	-0.0012207	
1.958	0.0106812	
1.959	0.0213623	
1.96	0.0289917	
1.961	0.0335693	
1.962	0.0335693	
1.963	0.0302124	
1.964	0.0234985	
1.965	0.0143433	
1.966	0.00457764	
1.967	-0.00549316	
1.968	-0.0140381	
1.969	-0.0204468	
1.97	-0.0234985	
1.971	-0.0228882	
1.972	-0.0177002	
1.973	-0.00915527	
1.974	0.00244141	
1.975	0.0158691	
1.976	0.0299072	
1.977	0.043335	
1.978	0.055542	
1.979	0.0653076	
1.98	0.071106	
1.981	0.0726318	
1.982	0.0692749	
1.983	0.0622559	
1.984	0.0518799	
1.985	0.039978	
1.986	0.0271606	
1.987	0.0146484	
1.988	0.00427246	
1.989	-0.00335693	
1.99	-0.00732422	
1.991	-0.00640869	
1.992	-0.0012207	
1.993	0.00793457	
1.994	0.0201416	
1.995	0.0344849	
1.996	0.0497437	
1.997	0.0646973	
1.998	0.0778198	
1.999	0.088501	
2	0.0949097	
2.001	0.0967407	
2.002	0.0942993	
2.003	0.0881958	
2.004	0.0793457	
2.005	0.0689697	
2.006	0.0579834	
2.007	0.0473022	
2.008	0.0384521	
2.009	0.0320435	
2.01	0.0296021	
2.011	0.0308228	
2.012	0.0357056	
2.013	0.0436401	
2.014	0.0534058	
2.015	0.0646973	
2.016	0.0759888	
2.017	0.0860596	
2.018	0.093689	
2.019	0.0982666	
2.02	0.0985718	
2.021	0.0946045	
2.022	0.0869751	
2.023	0.0759888	
2.024	0.0631714	
2.025	0.0494385	
2.026	0.0357056	
2.027	0.0231934	
2.028	0.0131226	
2.029	0.00640869	
2.03	0.00396729	
2.031	0.00549316	
2.032	0.010376	
2.033	0.0177002	
2.034	0.0268555	
2.035	0.0363159	
2.036	0.0448608	
2.037	0.0518799	
2.038	0.0558472	
2.039	0.0561523	
2.04	0.0518799	
2.041	0.0439453	
2.042	0.032959	
2.043	0.0192261	
2.044	0.00457764	
2.045	-0.0106812	
2.046	-0.0244141	
2.047	-0.0360107	
2.048	-0.0442505	
2.049	-0.0485229	
2.05	-0.0479126	
2.051	-0.043335	
2.052	-0.0357056	
2.053	-0.0259399	
2.054	-0.0146484	
2.055	-0.00305176	
2.056	0.00762939	
2.057	0.0161743	
2.058	0.0216675	
2.059	0.0231934	
2.06	0.0204468	
2.061	0.0134277	
2.062	0.00366211	
2.063	-0.00823975	
2.064	-0.0210571	
2.065	-0.0332642	
2.066	-0.0439453	
2.067	-0.0521851	
2.068	-0.0567627	
2.069	-0.0570679	
2.07	-0.0527954	
2.071	-0.045166	
2.072	-0.0350952	
2.073	-0.0231934	
2.074	-0.010376	
2.075	0.00152588	
2.076	0.0119019	
2.077	0.0195312	
2.078	0.0234985	
2.079	0.022583	
2.08	0.0180054	
2.081	0.00946045	
2.082	-0.0012207	
2.083	-0.0137329	
2.084	-0.0265503	
2.085	-0.0384521	
2.086	-0.0485229	
2.087	-0.055542	
2.088	-0.0582886	
2.089	-0.0567627	
2.09	-0.0509644	
2.091	-0.0418091	
2.092	-0.0302124	
2.093	-0.0170898	
2.094	-0.00366211	
2.095	0.00854492	
2.096	0.0192261	
2.097	0.0262451	
2.098	0.0286865	
2.099	0.0271606	
2.1	0.0216675	
2.101	0.0128174	
2.102	0.00213623	
2.103	-0.00976562	
2.104	-0.0219727	
2.105	-0.032959	
2.106	-0.0418091	
2.107	-0.0476074	
2.108	-0.0494385	
2.109	-0.0466919	
2.11	-0.0405884	
2.111	-0.0311279	
2.112	-0.0198364	
2.113	-0.00701904	
2.114	0.00549316	
2.115	0.0170898	
2.116	0.0268555	
2.117	0.0332642	
2.118	0.0363159	
2.119	0.0360107	
2.12	0.0335693	
2.121	0.0299072	
2.122	0.0268555	
2.123	0.0253296	
2.124	0.027771	
2.125	0.0354004	
2.126	0.0494385	
2.127	0.0720215	
2.128	0.10376	
2.129	0.144653	
2.13	0.193787	
2.131	0.250244	
2.132	0.313721	
2.133	0.38208	
2.134	0.454712	
2.135	0.52948	
2.136	0.604553	
2.137	0.677185	
2.138	0.745544	
2.139	0.809021	
2.14	0.866394	
2.141	0.917664	
2.142	0.96283	
2.143	1.00189	
2.144	1.03424	
2.145	1.05988	
2.146	1.07788	
2.147	1.08856	
2.148	1.09192	
2.149	1.08643	
2.15	1.07208	
2.151	1.04828	
2.152	1.01471	
2.153	0.970764	
2.154	0.917358	
2.155	0.854187	
2.156	0.781555	
2.157	0.700684	
2.158	0.612793	
2.159	0.519714	
2.16	0.4245	
2.161	0.32959	
2.162	0.238037	
2.163	0.151978	
2.164	0.0741577	
2.165	0.00640869	
2.166	-0.0491333	
2.167	-0.0921631	
2.168	-0.122375	
2.169	-0.140991	
2.17	-0.149536	
2.171	-0.149231	
2.172	-0.142517	
2.173	-0.131531	
2.174	-0.118103	
2.175	-0.10437	
2.176	-0.0924683	
2.177	-0.0830078	
2.178	-0.0762939	
2.179	-0.0723267	
2.18	-0.0708008	
2.181	-0.0704956	
2.182	-0.071106	
2.183	-0.0714111	
2.184	-0.071106	
2.185	-0.0692749	
2.186	-0.0650024	
2.187	-0.0582886	
2.188	-0.0491333	
2.189	-0.0384521	
2.19	-0.0274658	
2.191	-0.0161743	
2.192	-0.00640869	
2.193	0.00152588	
2.194	0.00640869	
2.195	0.00732422	
2.196	0.00396729	
2.197	-0.00396729	
2.198	-0.0152588	
2.199	-0.0289917	
2.2	-0.0439453	
2.201	-0.0592041	
2.202	-0.0732422	
2.203	-0.085144	
2.204	-0.0939941	
2.205	-0.0982666	
2.206	-0.0976562	
2.207	-0.0921631	
2.208	-0.0830078	
2.209	-0.071106	
2.21	-0.057373	
2.211	-0.043335	
2.212	-0.0299072	
2.213	-0.0183105	
2.214	-0.00976562	
2.215	-0.00518799	
2.216	-0.00488281	
2.217	-0.00854492	
2.218	-0.015564	
2.219	-0.0247192	
2.22	-0.03479	
2.221	-0.045166	
2.222	-0.0540161	
2.223	-0.0610352	
2.224	-0.0650024	
2.225	-0.0646973	
2.226	-0.0601196	
2.227	-0.0521851	
2.228	-0.0411987	
2.229	-0.0280762	
2.23	-0.0146484	
2.231	-0.00152588	
2.232	0.00976562	
2.233	0.0186157	
2.234	0.0234985	
2.235	0.0244141	
2.236	0.0204468	
2.237	0.0131226	
2.238	0.00274658	
2.239	-0.00946045	
2.24	-0.0222778	
2.241	-0.0344849	
2.242	-0.0448608	
2.243	-0.0524902	
2.244	-0.0561523	
2.245	-0.0552368	
2.246	-0.0497437	
2.247	-0.0405884	
2.248	-0.0286865	
2.249	-0.0149536	
2.25	-0.000305176	
2.251	0.0134277	
2.252	0.0256348	
2.253	0.0350952	
2.254	0.0405884	
2.255	0.0418091	
2.256	0.0387573	
2.257	0.0323486	
2.258	0.0231934	
2.259	0.0128174	
2.26	0.00213623	
2.261	-0.00732422	
2.262	-0.0146484	
2.263	-0.0189209	
2.264	-0.0189209	
2.265	-0.0152588	
2.266	-0.00793457	
2.267	0.00213623	
2.268	0.0140381	
2.269	0.0265503	
2.27	0.0390625	
2.271	0.050354	
2.272	0.0595093	
2.273	0.0656128	
2.274	0.067749	
2.275	0.065918	
2.276	0.0604248	
2.277	0.0518799	
2.278	0.0415039	
2.279	0.0305176	
2.28	0.0198364	
2.281	0.0112915	
2.282	0.00518799	
2.283	0.00274658	
2.284	0.00488281	
2.285	0.0109863	
2.286	0.020752	
2.287	0.0332642	
2.288	0.0476074	
2.289	0.0622559	
2.29	0.0765991	
2.291	0.0891113	
2.292	0.0985718	
2.293	0.10437	
2.294	0.105286	
2.295	0.102234	
2.296	0.0958252	
2.297	0.0869751	
2.298	0.0769043	
2.299	0.0668335	
2.3	0.0579834	
2.301	0.0512695	
2.302	0.0479126	
2.303	0.0488281	
2.304	0.0537109	
2.305	0.062561	
2.306	0.0750732	
2.307	0.0894165	
2.308	0.105591	
2.309	0.12146	
2.31	0.136719	
2.311	0.149536	
2.312	0.158997	
2.313	0.16449	
2.314	0.16571	
2.315	0.162964	
2.316	0.157166	
2.317	0.149536	
2.318	0.140991	
2.319	0.132751	
2.32	0.125427	
2.321	0.12085	
2.322	0.119324	
2.323	0.12207	
2.324	0.129089	
2.325	0.139465	
2.326	0.152893	
2.327	0.168152	
2.328	0.183411	
2.329	0.198059	
2.33	0.210266	
2.331	0.219727	
2.332	0.224915	
2.333	0.225525	
2.334	0.221863	
2.335	0.214844	
2.336	0.205383	
2.337	0.194702	
2.338	0.183411	
2.339	0.173035	
2.34	0.16449	
2.341	0.158997	
2.342	0.157166	
2.343	0.159607	
2.344	0.166016	
2.345	0.175171	
2.346	0.186157	
2.347	0.198364	
2.348	0.210571	
2.349	0.221558	
2.35	0.229797	
2.351	0.23468	
2.352	0.234985	
2.353	0.230408	
2.354	0.222168	
2.355	0.210266	
2.356	0.196228	
2.357	0.180664	
2.358	0.1651	
2.359	0.151062	
2.36	0.13916	
2.361	0.13092	
2.362	0.127258	
2.363	0.127869	
2.364	0.131836	
2.365	0.138855	
2.366	0.14801	
2.367	0.157776	
2.368	0.167236	
2.369	0.174866	
2.37	0.180054	
2.371	0.180969	
2.372	0.177612	
2.373	0.169983	
2.374	0.158691	
2.375	0.144043	
2.376	0.127869	
2.377	0.111084	
2.378	0.0949097	
2.379	0.0805664	
2.38	0.0692749	
2.381	0.0613403	
2.382	0.0579834	
2.383	0.0582886	
2.384	0.0616455	
2.385	0.0671387	
2.386	0.0741577	
2.387	0.0811768	
2.388	0.0872803	
2.389	0.0912476	
2.39	0.0921631	
2.391	0.0891113	
2.392	0.0820923	
2.393	0.0714111	
2.394	0.0576782	
2.395	0.0421143	
2.396	0.0259399	
2.397	0.010376	
2.398	-0.00366211	
2.399	-0.0152588	
2.4	-0.0231934	
2.401	-0.0265503	
2.402	-0.0259399	
2.403	-0.0216675	
2.404	-0.0146484	
2.405	-0.00549316	
2.406	0.00427246	
2.407	0.0137329	
2.408	0.0216675	
2.409	0.0268555	
2.41	0.0283813	
2.411	0.0253296	
2.412	0.0183105	
2.413	0.00762939	
2.414	-0.00579834	
2.415	-0.0204468	
2.416	-0.0360107	
2.417	-0.0509644	
2.418	-0.0637817	
2.419	-0.0738525	
2.42	-0.0799561	
2.421	-0.0817871	
2.422	-0.0790405	
2.423	-0.0723267	
2.424	-0.0631714	
2.425	-0.0521851	
2.426	-0.0405884	
2.427	-0.0299072	
2.428	-0.0210571	
2.429	-0.0152588	
2.43	-0.0137329	
2.431	-0.0164795	
2.432	-0.0228882	
2.433	-0.0323486	
2.434	-0.0436401	
2.435	-0.0561523	
2.436	-0.0680542	
2.437	-0.0784302	
2.438	-0.0866699	
2.439	-0.0915527	
2.44	-0.0924683	
2.441	-0.0891113	
2.442	-0.0823975	
2.443	-0.0732422	
2.444	-0.062561	
2.445	-0.0506592	
2.446	-0.0393677	
2.447	-0.0292969	
2.448	-0.0216675	
2.449	-0.0177002	
2.45	-0.0183105	
2.451	-0.022583	
2.452	-0.0305176	
2.453	-0.0411987	
2.454	-0.0531006	
2.455	-0.0653076	
2.456	-0.0765991	
2.457	-0.0857544	
2.458	-0.0918579	
2.459	-0.0939941	
2.46	-0.0915527	
2.461	-0.0848389	
2.462	-0.0753784	
2.463	-0.0634766	
2.464	-0.0500488	
2.465	-0.0366211	
2.466	-0.0244141	
2.467	-0.0140381	
2.468	-0.00671387	
2.469	-0.00366211	
2.47	-0.00549316	
2.471	-0.0112915	
2.472	-0.020752	
2.473	-0.0326538	
2.474	-0.0460815	
2.475	-0.0598145	
2.476	-0.0720215	
2.477	-0.0823975	
2.478	-0.0891113	
2.479	-0.0915527	
2.48	-0.0897217	
2.481	-0.0836182	
2.482	-0.0741577	
2.483	-0.062561	
2.484	-0.0497437	
2.485	-0.0369263	
2.486	-0.0256348	
2.487	-0.0164795	
2.488	-0.0109863	
2.489	-0.00976562	
2.49	-0.0131226	
2.491	-0.0201416	
2.492	-0.0302124	
2.493	-0.0424194	
2.494	-0.0549316	
2.495	-0.0668335	
2.496	-0.0769043	
2.497	-0.0842285	
2.498	-0.0878906	
2.499	-0.0872803	
2.5	-0.0823975	
2.501	-0.0744629	
2.502	-0.0640869	
2.503	-0.0524902	
2.504	-0.0402832	
2.505	-0.0286865	
2.506	-0.0192261	
2.507	-0.0125122	
2.508	-0.00976562	
2.509	-0.0112915	
2.51	-0.0164795	
2.511	-0.0244141	
2.512	-0.03479	
2.513	-0.0463867	
2.514	-0.0576782	
2.515	-0.0674438	
2.516	-0.0750732	
2.517	-0.0793457	
2.518	-0.0793457	
2.519	-0.0753784	
2.52	-0.0674438	
2.521	-0.0570679	
2.522	-0.0445557	
2.523	-0.0311279	
2.524	-0.0183105	
2.525	-0.00671387	
2.526	0.00213623	
2.527	0.00793457	
2.528	0.00915527	
2.529	0.00579834	
2.53	-0.000915527	
2.531	-0.0109863	
2.532	-0.022583	
2.533	-0.0350952	
2.534	-0.0473022	
2.535	-0.0582886	
2.536	-0.0665283	
2.537	-0.071106	
2.538	-0.071106	
2.539	-0.0671387	
2.54	-0.0601196	
2.541	-0.0500488	
2.542	-0.0387573	
2.543	-0.0268555	
2.544	-0.015564	
2.545	-0.00579834	
2.546	0.000610352	
2.547	0.00335693	
2.548	0.00183105	
2.549	-0.00366211	
2.55	-0.0125122	
2.551	-0.0231934	
2.552	-0.0354004	
2.553	-0.0476074	
2.554	-0.0582886	
2.555	-0.0671387	
2.556	-0.072937	
2.557	-0.0747681	
2.558	-0.0720215	
2.559	-0.0653076	
2.56	-0.0552368	
2.561	-0.043335	
2.562	-0.0305176	
2.563	-0.0177002	
2.564	-0.00610352	
2.565	0.00305176	
2.566	0.00854492	
2.567	0.00976562	
2.568	0.00701904	
2.569	0.000305176	
2.57	-0.00946045	
2.571	-0.0210571	
2.572	-0.0332642	
2.573	-0.045166	
2.574	-0.0552368	
2.575	-0.062561	
2.576	-0.0665283	
2.577	-0.065918	
2.578	-0.0613403	
2.579	-0.0531006	
2.58	-0.0424194	
2.581	-0.0299072	
2.582	-0.0170898	
2.583	-0.00488281	
2.584	0.00549316	
2.585	0.0131226	
2.586	0.0164795	
2.587	0.015564	
2.588	0.010376	
2.589	0.00213623	
2.59	-0.00854492	
2.591	-0.020752	
2.592	-0.0326538	
2.593	-0.0436401	
2.594	-0.0524902	
2.595	-0.0582886	
2.596	-0.0598145	
2.597	-0.0570679	
2.598	-0.0506592	
2.599	-0.0415039	
2.6	-0.0302124	
2.601	-0.0183105	
2.602	-0.00640869	
2.603	0.00396729	
2.604	0.0125122	
2.605	0.017395	
2.606	0.0186157	
2.607	0.0149536	
2.608	0.00762939	
2.609	-0.00274658	
2.61	-0.0152588	
2.611	-0.0283813	
2.612	-0.0415039	
2.613	-0.0527954	
2.614	-0.0616455	
2.615	-0.0665283	
2.616	-0.0671387	
2.617	-0.0628662	
2.618	-0.0552368	
2.619	-0.0448608	
2.62	-0.0326538	
2.621	-0.0198364	
2.622	-0.00762939	
2.623	0.00335693	
2.624	0.0115967	
2.625	0.0158691	
2.626	0.0158691	
2.627	0.0112915	
2.628	0.00274658	
2.629	-0.00823975	
2.63	-0.0210571	
2.631	-0.0341797	
2.632	-0.0457764	
2.633	-0.055542	
2.634	-0.0619507	
2.635	-0.0640869	
2.636	-0.0619507	
2.637	-0.0558472	
2.638	-0.0466919	
2.639	-0.0354004	
2.64	-0.022583	
2.641	-0.0100708	
2.642	0.00152588	
2.643	0.0109863	
2.644	0.0170898	
2.645	0.0192261	
2.646	0.0170898	
2.647	0.0109863	
2.648	0.00213623	
2.649	-0.00915527	
2.65	-0.0210571	
2.651	-0.032959	
2.652	-0.043335	
2.653	-0.0512695	
2.654	-0.0561523	
2.655	-0.0564575	
2.656	-0.0527954	
2.657	-0.0454712	
2.658	-0.0357056	
2.659	-0.0241089	
2.66	-0.0119019	
2.661	-0.000305176	
2.662	0.00976562	
2.663	0.017395	
2.664	0.0210571	
2.665	0.0201416	
2.666	0.0152588	
2.667	0.00640869	
2.668	-0.00518799	
2.669	-0.0180054	
2.67	-0.0311279	
2.671	-0.0430298	
2.672	-0.0527954	
2.673	-0.0598145	
2.674	-0.0628662	
2.675	-0.0610352	
2.676	-0.0552368	
2.677	-0.0463867	
2.678	-0.03479	
2.679	-0.0222778	
2.68	-0.00946045	
2.681	0.00244141	
2.682	0.012207	
2.683	0.0186157	
2.684	0.0213623	
2.685	0.0195312	
2.686	0.0140381	
2.687	0.00518799	
2.688	-0.00549316	
2.689	-0.0177002	
2.69	-0.0296021	
2.691	-0.0402832	
2.692	-0.0488281	
2.693	-0.0537109	
2.694	-0.0546265	
2.695	-0.0509644	
2.696	-0.0436401	
2.697	-0.0335693	
2.698	-0.0216675	
2.699	-0.00915527	
2.7	0.00244141	
2.701	0.0128174	
2.702	0.0204468	
2.703	0.0244141	
2.704	0.0241089	
2.705	0.0198364	
2.706	0.012207	
2.707	0.00152588	
2.708	-0.0106812	
2.709	-0.0231934	
2.71	-0.0350952	
2.711	-0.045166	
2.712	-0.0521851	
2.713	-0.0552368	
2.714	-0.0537109	
2.715	-0.0482178	
2.716	-0.0393677	
2.717	-0.0280762	
2.718	-0.015564	
2.719	-0.00274658	
2.72	0.00854492	
2.721	0.0183105	
2.722	0.0244141	
2.723	0.0268555	
2.724	0.0247192	
2.725	0.0186157	
2.726	0.00946045	
2.727	-0.00183105	
2.728	-0.0140381	
2.729	-0.0262451	
2.73	-0.0369263	
2.731	-0.045166	
2.732	-0.0500488	
2.733	-0.0506592	
2.734	-0.0473022	
2.735	-0.039978	
2.736	-0.0302124	
2.737	-0.0183105	
2.738	-0.00610352	
2.739	0.00579834	
2.74	0.0161743	
2.741	0.0238037	
2.742	0.0280762	
2.743	0.027771	
2.744	0.0234985	
2.745	0.015564	
2.746	0.00488281	
2.747	-0.00762939	
2.748	-0.020752	
2.749	-0.0326538	
2.75	-0.043335	
2.751	-0.0509644	
2.752	-0.0549316	
2.753	-0.0546265	
2.754	-0.050354	
2.755	-0.0427246	
2.756	-0.0326538	
2.757	-0.020752	
2.758	-0.00854492	
2.759	0.00274658	
2.76	0.0119019	
2.761	0.0183105	
2.762	0.020752	
2.763	0.0189209	
2.764	0.0131226	
2.765	0.00457764	
2.766	-0.00579834	
2.767	-0.017395	
2.768	-0.0286865	
2.769	-0.0387573	
2.77	-0.0466919	
2.771	-0.0509644	
2.772	-0.0512695	
2.773	-0.0473022	
2.774	-0.0396729	
2.775	-0.0289917	
2.776	-0.0164795	
2.777	-0.00305176	
2.778	0.00976562	
2.779	0.0210571	
2.78	0.0296021	
2.781	0.03479	
2.782	0.0354004	
2.783	0.0320435	
2.784	0.0247192	
2.785	0.0143433	
2.786	0.00244141	
2.787	-0.0100708	
2.788	-0.0213623	
2.789	-0.0311279	
2.79	-0.0378418	
2.791	-0.0408936	
2.792	-0.0393677	
2.793	-0.0338745	
2.794	-0.0250244	
2.795	-0.0134277	
2.796	-0.000305176	
2.797	0.0131226	
2.798	0.0256348	
2.799	0.0366211	
2.8	0.0442505	
2.801	0.0476074	
2.802	0.0466919	
2.803	0.0415039	
2.804	0.032959	
2.805	0.0222778	
2.806	0.010376	
2.807	-0.0012207	
2.808	-0.0115967	
2.809	-0.0195312	
2.81	-0.0241089	
2.811	-0.0247192	
2.812	-0.020752	
2.813	-0.0128174	
2.814	-0.00183105	
2.815	0.0109863	
2.816	0.0250244	
2.817	0.0390625	
2.818	0.0515747	
2.819	0.0613403	
2.82	0.0671387	
2.821	0.0683594	
2.822	0.0653076	
2.823	0.0582886	
2.824	0.0482178	
2.825	0.0366211	
2.826	0.0244141	
2.827	0.0131226	
2.828	0.00366211	
2.829	-0.00335693	
2.83	-0.00671387	
2.831	-0.00579834	
2.832	-0.000610352	
2.833	0.00823975	
2.834	0.0201416	
2.835	0.0335693	
2.836	0.0482178	
2.837	0.0622559	
2.838	0.0747681	
2.839	0.0839233	
2.84	0.0891113	
2.841	0.0900269	
2.842	0.0866699	
2.843	0.0799561	
2.844	0.071106	
2.845	0.06073	
2.846	0.050354	
2.847	0.0408936	
2.848	0.0335693	
2.849	0.0292969	
2.85	0.0283813	
2.851	0.0314331	
2.852	0.0378418	
2.853	0.0466919	
2.854	0.057373	
2.855	0.0686646	
2.856	0.0796509	
2.857	0.0894165	
2.858	0.0964355	
2.859	0.100098	
2.86	0.0991821	
2.861	0.0942993	
2.862	0.085144	
2.863	0.0732422	
2.864	0.0592041	
2.865	0.0445557	
2.866	0.0299072	
2.867	0.0167847	
2.868	0.00579834	
2.869	-0.00152588	
2.87	-0.00457764	
2.871	-0.00366211	
2.872	0.000915527	
2.873	0.00793457	
2.874	0.0170898	
2.875	0.0265503	
2.876	0.0350952	
2.877	0.0421143	
2.878	0.0460815	
2.879	0.0460815	
2.88	0.0418091	
2.881	0.0338745	
2.882	0.022583	
2.883	0.00915527	
2.884	-0.00549316	
2.885	-0.0201416	
2.886	-0.0335693	
2.887	-0.0448608	
2.888	-0.0524902	
2.889	-0.055542	
2.89	-0.0534058	
2.891	-0.0473022	
2.892	-0.0378418	
2.893	-0.0259399	
2.894	-0.0128174	
2.895	0.000305176	
2.896	0.0119019	
2.897	0.0213623	
2.898	0.0274658	
2.899	0.0292969	
2.9	0.0268555	
2.901	0.0204468	
2.902	0.0112915	
2.903	0	
2.904	-0.0119019	
2.905	-0.0234985	
2.906	-0.0338745	
2.907	-0.0411987	
2.908	-0.0454712	
2.909	-0.045166	
2.91	-0.0408936	
2.911	-0.0335693	
2.912	-0.0234985	
2.913	-0.012207	
2.914	0	
2.915	0.0115967	
2.916	0.0210571	
2.917	0.027771	
2.918	0.0308228	
2.919	0.0292969	
2.92	0.0238037	
2.921	0.0149536	
2.922	0.00396729	
2.923	-0.0088501	
2.924	-0.0213623	
2.925	-0.0332642	
2.926	-0.043335	
2.927	-0.0500488	
2.928	-0.0531006	
2.929	-0.0515747	
2.93	-0.0457764	
2.931	-0.0369263	
2.932	-0.0259399	
2.933	-0.0134277	
2.934	-0.000915527	
2.935	0.0100708	
2.936	0.0189209	
2.937	0.0241089	
2.938	0.0256348	
2.939	0.0228882	
2.94	0.0167847	
2.941	0.00762939	
2.942	-0.00305176	
2.943	-0.0149536	
2.944	-0.0268555	
2.945	-0.0372314	
2.946	-0.0454712	
2.947	-0.050354	
2.948	-0.0506592	
2.949	-0.0463867	
2.95	-0.0384521	
2.951	-0.0271606	
2.952	-0.0137329	
2.953	0.000915527	
2.954	0.0152588	
2.955	0.0283813	
2.956	0.0390625	
2.957	0.0466919	
2.958	0.0506592	
2.959	0.0512695	
2.96	0.0500488	
2.961	0.0482178	
2.962	0.0473022	
2.963	0.0488281	
2.964	0.0549316	
2.965	0.0665283	
2.966	0.0854492	
2.967	0.112915	
2.968	0.149231	
2.969	0.194702	
2.97	0.248413	
2.971	0.309448	
2.972	0.376892	
2.973	0.449524	
2.974	0.525513	
2.975	0.602112	
2.976	0.67749	
2.977	0.748596	
2.978	0.813599	
2.979	0.872498	
2.98	0.924377	
2.981	0.969238	
2.982	1.00708	
2.983	1.0376	
2.984	1.06079	
2.985	1.07605	
2.986	1.08337	
2.987	1.08337	
2.988	1.07574	
2.989	1.05988	
2.99	1.03546	
2.991	1.0022	
2.992	0.960083	
2.993	0.909424	
2.994	0.85022	
2.995	0.782776	
2.996	0.707397	
2.997	0.624695	
2.998	0.536194	
2.999	0.444641	
3	0.352173	
3.001	0.261536	
3.002	0.175171	
3.003	0.0958252	
3.004	0.0253296	
3.005	-0.0344849	
3.006	-0.0817871	
3.007	-0.116272	
3.008	-0.13855	
3.009	-0.149841	
3.01	-0.151978	
3.011	-0.147095	
3.012	-0.136414	
3.013	-0.122986	
3.014	-0.108643	
3.015	-0.0946045	
3.016	-0.0830078	
3.017	-0.0747681	
3.018	-0.0692749	
3.019	-0.0665283	
3.02	-0.065918	
3.021	-0.0668335	
3.022	-0.0683594	
3.023	-0.0698853	
3.024	-0.0704956	
3.025	-0.0692749	
3.026	-0.0656128	
3.027	-0.0592041	
3.028	-0.0509644	
3.029	-0.0411987	
3.03	-0.0311279	
3.031	-0.0210571	
3.032	-0.0125122	
3.033	-0.00579834	
3.034	-0.00213623	
3.035	-0.00183105	
3.036	-0.00579834	
3.037	-0.0137329	
3.038	-0.0244141	
3.039	-0.0375366	
3.04	-0.0512695	
3.041	-0.0646973	
3.042	-0.0765991	
3.043	-0.0860596	
3.044	-0.0921631	
3.045	-0.0939941	
3.046	-0.0912476	
3.047	-0.0839233	
3.048	-0.0732422	
3.049	-0.0601196	
3.05	-0.0457764	
3.051	-0.0314331	
3.052	-0.0180054	
3.053	-0.00671387	
3.054	0.0012207	
3.055	0.00518799	
3.056	0.00488281	
3.057	0.000610352	
3.058	-0.00732422	
3.059	-0.017395	
3.06	-0.0289917	
3.061	-0.0402832	
3.062	-0.0506592	
3.063	-0.0585938	
3.064	-0.0631714	
3.065	-0.0631714	
3.066	-0.0592041	
3.067	-0.0509644	
3.068	-0.039978	
3.069	-0.0271606	
3.07	-0.0134277	
3.071	0	
3.072	0.0119019	
3.073	0.0210571	
3.074	0.0268555	
3.075	0.0280762	
3.076	0.0250244	
3.077	0.0183105	
3.078	0.00823975	
3.079	-0.00335693	
3.08	-0.0152588	
3.081	-0.0268555	
3.082	-0.0363159	
3.083	-0.0430298	
3.084	-0.0457764	
3.085	-0.0439453	
3.086	-0.0378418	
3.087	-0.0283813	
3.088	-0.0164795	
3.089	-0.00305176	
3.09	0.0109863	
3.091	0.0241089	
3.092	0.0357056	
3.093	0.0442505	
3.094	0.0488281	
3.095	0.0488281	
3.096	0.0448608	
3.097	0.0375366	
3.098	0.0280762	
3.099	0.0170898	
3.1	0.00610352	
3.101	-0.00366211	
3.102	-0.0115967	
3.103	-0.0158691	
3.104	-0.0164795	
3.105	-0.0128174	
3.106	-0.00518799	
3.107	0.00488281	
3.108	0.017395	
3.109	0.0305176	
3.11	0.0436401	
3.111	0.0552368	
3.112	0.0646973	
3.113	0.0704956	
3.114	0.0720215	
3.115	0.0695801	
3.116	0.0634766	
3.117	0.0543213	
3.118	0.0439453	
3.119	0.032959	
3.12	0.022583	
3.121	0.0140381	
3.122	0.00854492	
3.123	0.00671387	
3.124	0.00946045	
3.125	0.0164795	
3.126	0.0268555	
3.127	0.039978	
3.128	0.0549316	
3.129	0.0701904	
3.13	0.0848389	
3.131	0.0976562	
3.132	0.107422	
3.133	0.113525	
3.134	0.115051	
3.135	0.112915	
3.136	0.107422	
3.137	0.0997925	
3.138	0.0906372	
3.139	0.0817871	
3.14	0.0738525	
3.141	0.0680542	
3.142	0.0656128	
3.143	0.0671387	
3.144	0.0726318	
3.145	0.0820923	
3.146	0.0942993	
3.147	0.108337	
3.148	0.123291	
3.149	0.137939	
3.15	0.151062	
3.151	0.162048	
3.152	0.169678	
3.153	0.17334	
3.154	0.172424	
3.155	0.167847	
3.156	0.160522	
3.157	0.151367	
3.158	0.141296	
3.159	0.131836	
3.16	0.124207	
3.161	0.119324	
3.162	0.118408	
3.163	0.122375	
3.164	0.13031	
3.165	0.141602	
3.166	0.155029	
3.167	0.169983	
3.168	0.184937	
3.169	0.198669	
3.17	0.210571	
3.171	0.219421	
3.172	0.223999	
3.173	0.224304	
3.174	0.220642	
3.175	0.213623	
3.176	0.203857	
3.177	0.192871	
3.178	0.181274	
3.179	0.170593	
3.18	0.162048	
3.181	0.15625	
3.182	0.154114	
3.183	0.15625	
3.184	0.161743	
3.185	0.170288	
3.186	0.181274	
3.187	0.193481	
3.188	0.205994	
3.189	0.21698	
3.19	0.226135	
3.191	0.231323	
3.192	0.232239	
3.193	0.228271	
3.194	0.220642	
3.195	0.209961	
3.196	0.196838	
3.197	0.1828	
3.198	0.169067	
3.199	0.157166	
3.2	0.1474	
3.201	0.141296	
3.202	0.139465	
3.203	0.141602	
3.204	0.147095	
3.205	0.154724	
3.206	0.164185	
3.207	0.17395	
3.208	0.183105	
3.209	0.190735	
3.21	0.195007	
3.211	0.195312	
3.212	0.191345	
3.213	0.183105	
3.214	0.170898	
3.215	0.15625	
3.216	0.139771	
3.217	0.122681	
3.218	0.106201	
3.219	0.0918579	
3.22	0.0805664	
3.221	0.0732422	
3.222	0.0698853	
3.223	0.0708008	
3.224	0.0744629	
3.225	0.0799561	
3.226	0.0869751	
3.227	0.0939941	
3.228	0.0997925	
3.229	0.103455	
3.23	0.103149	
3.231	0.098877	
3.232	0.0897217	
3.233	0.0772095	
3.234	0.0616455	
3.235	0.0445557	
3.236	0.0268555	
3.237	0.00976562	
3.238	-0.00518799	
3.239	-0.0170898	
3.24	-0.0253296	
3.241	-0.0292969	
3.242	-0.0286865	
3.243	-0.0244141	
3.244	-0.017395	
3.245	-0.00854492	
3.246	0.0012207	
3.247	0.0106812	
3.248	0.0183105	
3.249	0.0238037	
3.25	0.0253296	
3.251	0.022583	
3.252	0.0161743	
3.253	0.00640869	
3.254	-0.00610352	
3.255	-0.0201416	
3.256	-0.03479	
3.257	-0.0482178	
3.258	-0.0598145	
3.259	-0.0683594	
3.26	-0.072937	
3.261	-0.072937	
3.262	-0.0689697	
3.263	-0.0619507	
3.264	-0.0524902	
3.265	-0.0418091	
3.266	-0.0311279	
3.267	-0.0216675	
3.268	-0.0143433	
3.269	-0.00976562	
3.27	-0.00976562	
3.271	-0.0134277	
3.272	-0.0210571	
3.273	-0.0311279	
3.274	-0.0436401	
3.275	-0.0567627	
3.276	-0.0695801	
3.277	-0.0808716	
3.278	-0.0894165	
3.279	-0.0942993	
3.28	-0.0946045	
3.281	-0.0906372	
3.282	-0.0827026	
3.283	-0.0720215	
3.284	-0.0598145	
3.285	-0.0463867	
3.286	-0.0338745	
3.287	-0.0231934	
3.288	-0.0152588	
3.289	-0.0112915	
3.29	-0.0119019	
3.291	-0.0164795	
3.292	-0.0247192	
3.293	-0.0357056	
3.294	-0.0479126	
3.295	-0.06073	
3.296	-0.0726318	
3.297	-0.0827026	
3.298	-0.0897217	
3.299	-0.0927734	
3.3	-0.0915527	
3.301	-0.0866699	
3.302	-0.078125	
3.303	-0.0674438	
3.304	-0.0549316	
3.305	-0.0424194	
3.306	-0.0305176	
3.307	-0.020752	
3.308	-0.0140381	
3.309	-0.0112915	
3.31	-0.0131226	
3.311	-0.0186157	
3.312	-0.027771	
3.313	-0.0387573	
3.314	-0.0512695	
3.315	-0.0634766	
3.316	-0.0744629	
3.317	-0.0830078	
3.318	-0.0881958	
3.319	-0.0888062	
3.32	-0.0854492	
3.321	-0.0784302	
3.322	-0.0686646	
3.323	-0.057373	
3.324	-0.045166	
3.325	-0.0335693	
3.326	-0.0238037	
3.327	-0.0164795	
3.328	-0.0128174	
3.329	-0.0131226	
3.33	-0.017395	
3.331	-0.0247192	
3.332	-0.0344849	
3.333	-0.0457764	
3.334	-0.057373	
3.335	-0.0680542	
3.336	-0.0769043	
3.337	-0.0827026	
3.338	-0.0845337	
3.339	-0.0820923	
3.34	-0.0759888	
3.341	-0.0665283	
3.342	-0.0552368	
3.343	-0.0424194	
3.344	-0.0296021	
3.345	-0.0180054	
3.346	-0.00823975	
3.347	-0.00213623	
3.348	-0.000305176	
3.349	-0.00274658	
3.35	-0.00946045	
3.351	-0.0192261	
3.352	-0.0311279	
3.353	-0.0442505	
3.354	-0.057373	
3.355	-0.0689697	
3.356	-0.0778198	
3.357	-0.083313	
3.358	-0.0845337	
3.359	-0.0808716	
3.36	-0.0735474	
3.361	-0.0634766	
3.362	-0.0509644	
3.363	-0.0375366	
3.364	-0.0244141	
3.365	-0.0128174	
3.366	-0.00366211	
3.367	0.0012207	
3.368	0.00183105	
3.369	-0.00213623	
3.37	-0.00976562	
3.371	-0.0201416	
3.372	-0.0320435	
3.373	-0.0448608	
3.374	-0.0570679	
3.375	-0.0674438	
3.376	-0.0750732	
3.377	-0.0787354	
3.378	-0.078125	
3.379	-0.0732422	
3.38	-0.0650024	
3.381	-0.0546265	
3.382	-0.0427246	
3.383	-0.0305176	
3.384	-0.0192261	
3.385	-0.00946045	
3.386	-0.00274658	
3.387	-0.000305176	
3.388	-0.00183105	
3.389	-0.00762939	
3.39	-0.0164795	
3.391	-0.0274658	
3.392	-0.0393677	
3.393	-0.0512695	
3.394	-0.0622559	
3.395	-0.0708008	
3.396	-0.0759888	
3.397	-0.0772095	
3.398	-0.0738525	
3.399	-0.0668335	
3.4	-0.0567627	
3.401	-0.0448608	
3.402	-0.0317383	
3.403	-0.0186157	
3.404	-0.00701904	
3.405	0.00213623	
3.406	0.00823975	
3.407	0.00946045	
3.408	0.00671387	
3.409	0	
3.41	-0.00976562	
3.411	-0.0210571	
3.412	-0.032959	
3.413	-0.0439453	
3.414	-0.0534058	
3.415	-0.0604248	
3.416	-0.0631714	
3.417	-0.0616455	
3.418	-0.0558472	
3.419	-0.0466919	
3.42	-0.0350952	
3.421	-0.0219727	
3.422	-0.0088501	
3.423	0.00305176	
3.424	0.0131226	
3.425	0.0201416	
3.426	0.022583	
3.427	0.020752	
3.428	0.0149536	
3.429	0.00549316	
3.43	-0.00610352	
3.431	-0.0195312	
3.432	-0.0332642	
3.433	-0.0454712	
3.434	-0.0552368	
3.435	-0.0616455	
3.436	-0.0637817	
3.437	-0.0616455	
3.438	-0.055542	
3.439	-0.0463867	
3.44	-0.0350952	
3.441	-0.022583	
3.442	-0.0100708	
3.443	0.000915527	
3.444	0.00976562	
3.445	0.0152588	
3.446	0.0164795	
3.447	0.0131226	
3.448	0.00640869	
3.449	-0.00305176	
3.45	-0.0140381	
3.451	-0.0259399	
3.452	-0.0369263	
3.453	-0.0463867	
3.454	-0.0537109	
3.455	-0.057373	
3.456	-0.0567627	
3.457	-0.0518799	
3.458	-0.0436401	
3.459	-0.032959	
3.46	-0.0204468	
3.461	-0.00762939	
3.462	0.00396729	
3.463	0.0134277	
3.464	0.0201416	
3.465	0.022583	
3.466	0.020752	
3.467	0.0149536	
3.468	0.00549316	
3.469	-0.00610352	
3.47	-0.0189209	
3.471	-0.0317383	
3.472	-0.043335	
3.473	-0.0527954	
3.474	-0.0592041	
3.475	-0.0613403	
3.476	-0.0592041	
3.477	-0.0531006	
3.478	-0.0439453	
3.479	-0.0323486	
3.48	-0.0198364	
3.481	-0.00701904	
3.482	0.00457764	
3.483	0.0137329	
3.484	0.0192261	
3.485	0.020752	
3.486	0.0180054	
3.487	0.0112915	
3.488	0.00183105	
3.489	-0.00946045	
3.49	-0.0213623	
3.491	-0.0320435	
3.492	-0.0411987	
3.493	-0.0479126	
3.494	-0.0506592	
3.495	-0.0491333	
3.496	-0.0436401	
3.497	-0.03479	
3.498	-0.0234985	
3.499	-0.0109863	
3.5	0.00213623	
3.501	0.0146484	
3.502	0.0250244	
3.503	0.0323486	
3.504	0.0354004	
3.505	0.0338745	
3.506	0.027771	
3.507	0.0180054	
3.508	0.00549316	
3.509	-0.00915527	
3.51	-0.0238037	
3.511	-0.0378418	
3.512	-0.0497437	
3.513	-0.0585938	
3.514	-0.0631714	
3.515	-0.0631714	
3.516	-0.0588989	
3.517	-0.0512695	
3.518	-0.0411987	
3.519	-0.0292969	
3.52	-0.0177002	
3.521	-0.00701904	
3.522	0.00152588	
3.523	0.00701904	
3.524	0.0088501	
3.525	0.00640869	
3.526	0.000305176	
3.527	-0.0088501	
3.528	-0.0195312	
3.529	-0.0314331	
3.53	-0.0424194	
3.531	-0.0518799	
3.532	-0.0585938	
3.533	-0.0613403	
3.534	-0.0598145	
3.535	-0.0543213	
3.536	-0.0448608	
3.537	-0.0332642	
3.538	-0.0198364	
3.539	-0.00610352	
3.54	0.00671387	
3.541	0.017395	
3.542	0.0250244	
3.543	0.0280762	
3.544	0.0265503	
3.545	0.0210571	
3.546	0.0119019	
3.547	0.000610352	
3.548	-0.012207	
3.549	-0.0253296	
3.55	-0.0372314	
3.551	-0.0469971	
3.552	-0.0537109	
3.553	-0.0564575	
3.554	-0.0543213	
3.555	-0.0482178	
3.556	-0.0387573	
3.557	-0.0271606	
3.558	-0.0140381	
3.559	-0.000915527	
3.56	0.0109863	
3.561	0.020752	
3.562	0.0268555	
3.563	0.0289917	
3.564	0.0271606	
3.565	0.0213623	
3.566	0.0125122	
3.567	0.00152588	
3.568	-0.010376	
3.569	-0.0219727	
3.57	-0.0323486	
3.571	-0.0402832	
3.572	-0.0445557	
3.573	-0.0448608	
3.574	-0.0408936	
3.575	-0.0332642	
3.576	-0.0228882	
3.577	-0.0109863	
3.578	0.0012207	
3.579	0.0128174	
3.58	0.0222778	
3.581	0.0286865	
3.582	0.0311279	
3.583	0.0296021	
3.584	0.0238037	
3.585	0.0146484	
3.586	0.00305176	
3.587	-0.0100708	
3.588	-0.0231934	
3.589	-0.0354004	
3.59	-0.045166	
3.591	-0.0518799	
3.592	-0.0543213	
3.593	-0.0518799	
3.594	-0.0454712	
3.595	-0.0360107	
3.596	-0.0238037	
3.597	-0.0100708	
3.598	0.00396729	
3.599	0.0170898	
3.6	0.0283813	
3.601	0.0360107	
3.602	0.0396729	
3.603	0.0384521	
3.604	0.0332642	
3.605	0.0247192	
3.606	0.0140381	
3.607	0.00213623	
3.608	-0.00946045	
3.609	-0.0192261	
3.61	-0.0262451	
3.611	-0.0292969	
3.612	-0.0280762	
3.613	-0.0222778	
3.614	-0.0128174	
3.615	-0.000610352	
3.616	0.0134277	
3.617	0.027771	
3.618	0.0418091	
3.619	0.0537109	
3.62	0.0631714	
3.621	0.0686646	
3.622	0.0695801	
3.623	0.0662231	
3.624	0.0592041	
3.625	0.0494385	
3.626	0.038147	
3.627	0.0265503	
3.628	0.0158691	
3.629	0.00732422	
3.63	0.00152588	
3.631	0	
3.632	0.00274658	
3.633	0.00946045	
3.634	0.0192261	
3.635	0.0314331	
3.636	0.045166	
3.637	0.0592041	
3.638	0.0720215	
3.639	0.0827026	
3.64	0.0900269	
3.641	0.0930786	
3.642	0.0915527	
3.643	0.0857544	
3.644	0.0769043	
3.645	0.065918	
3.646	0.0537109	
3.647	0.0415039	
3.648	0.0308228	
3.649	0.022583	
3.65	0.0177002	
3.651	0.0167847	
3.652	0.0201416	
3.653	0.0265503	
3.654	0.0360107	
3.655	0.0469971	
3.656	0.0592041	
3.657	0.0708008	
3.658	0.0808716	
3.659	0.0878906	
3.66	0.0912476	
3.661	0.0900269	
3.662	0.0848389	
3.663	0.0759888	
3.664	0.0646973	
3.665	0.0518799	
3.666	0.0387573	
3.667	0.0262451	
3.668	0.015564	
3.669	0.00762939	
3.67	0.00366211	
3.671	0.00366211	
3.672	0.00762939	
3.673	0.0146484	
3.674	0.0238037	
3.675	0.0341797	
3.676	0.0445557	
3.677	0.0537109	
3.678	0.06073	
3.679	0.0643921	
3.68	0.0637817	
3.681	0.0592041	
3.682	0.050354	
3.683	0.0387573	
3.684	0.0250244	
3.685	0.010376	
3.686	-0.00396729	
3.687	-0.0170898	
3.688	-0.0280762	
3.689	-0.0357056	
3.69	-0.0387573	
3.691	-0.0378418	
3.692	-0.032959	
3.693	-0.0250244	
3.694	-0.015564	
3.695	-0.00488281	
3.696	0.00549316	
3.697	0.0143433	
3.698	0.020752	
3.699	0.0231934	
3.7	0.0213623	
3.701	0.015564	
3.702	0.00610352	
3.703	-0.00579834	
3.704	-0.0195312	
3.705	-0.0332642	
3.706	-0.0463867	
3.707	-0.0570679	
3.708	-0.0643921	
3.709	-0.067749	
3.71	-0.0665283	
3.711	-0.0610352	
3.712	-0.0521851	
3.713	-0.0408936	
3.714	-0.027771	
3.715	-0.0140381	
3.716	-0.00152588	
3.717	0.0088501	
3.718	0.0161743	
3.719	0.0189209	
3.72	0.0170898	
3.721	0.0112915	
3.722	0.00213623	
3.723	-0.00915527	
3.724	-0.0216675	
3.725	-0.0341797	
3.726	-0.0454712	
3.727	-0.0543213	
3.728	-0.0598145	
3.729	-0.0613403	
3.73	-0.0582886	
3.731	-0.0512695	
3.732	-0.0415039	
3.733	-0.0296021	
3.734	-0.0161743	
3.735	-0.00305176	
3.736	0.00946045	
3.737	0.0192261	
3.738	0.0256348	
3.739	0.0268555	
3.74	0.0238037	
3.741	0.0161743	
3.742	0.00579834	
3.743	-0.00671387	
3.744	-0.0198364	
3.745	-0.0323486	
3.746	-0.0430298	
3.747	-0.0512695	
3.748	-0.0558472	
3.749	-0.0561523	
3.75	-0.0524902	
3.751	-0.0448608	
3.752	-0.03479	
3.753	-0.0228882	
3.754	-0.0100708	
3.755	0.00213623	
3.756	0.0128174	
3.757	0.0216675	
3.758	0.0271606	
3.759	0.0302124	
3.76	0.0311279	
3.761	0.0311279	
3.762	0.0314331	
3.763	0.0335693	
3.764	0.0393677	
3.765	0.050354	
3.766	0.0680542	
3.767	0.0939941	
3.768	0.129089	
3.769	0.17395	
3.77	0.227966	
3.771	0.290833	
3.772	0.361023	
3.773	0.437622	
3.774	0.517578	
3.775	0.59906	
3.776	0.679321	
3.777	0.75531	
3.778	0.824585	
3.779	0.886536	
3.78	0.940247	
3.781	0.985413	
3.782	1.02142	
3.783	1.04828	
3.784	1.06567	
3.785	1.07361	
3.786	1.07239	
3.787	1.06323	
3.788	1.04645	
3.789	1.02325	
3.79	0.992737	
3.791	0.9552	
3.792	0.910645	
3.793	0.858459	
3.794	0.798645	
3.795	0.731201	
3.796	0.656738	
3.797	0.575867	
3.798	0.489807	
3.799	0.401001	
3.8	0.311584	
3.801	0.224304	
3.802	0.141602	
3.803	0.0656128	
3.804	-0.00183105	
3.805	-0.0595093	
3.806	-0.106201	
3.807	-0.140686	
3.808	-0.163269	
3.809	-0.175171	
3.81	-0.177612	
3.811	-0.172729	
3.812	-0.162048	
3.813	-0.147705	
3.814	-0.131226	
3.815	-0.114746	
3.816	-0.100098	
3.817	-0.0881958	
3.818	-0.0799561	
3.819	-0.0750732	
3.82	-0.0732422	
3.821	-0.0735474	
3.822	-0.0753784	
3.823	-0.0775146	
3.824	-0.0787354	
3.825	-0.0784302	
3.826	-0.0756836	
3.827	-0.0701904	
3.828	-0.0619507	
3.829	-0.0515747	
3.83	-0.039978	
3.831	-0.0280762	
3.832	-0.0167847	
3.833	-0.00701904	
3.834	0.000305176	
3.835	0.00457764	
3.836	0.00457764	
3.837	0.000305176	
3.838	-0.00823975	
3.839	-0.0195312	
3.84	-0.0332642	
3.841	-0.0476074	
3.842	-0.0619507	
3.843	-0.0741577	
3.844	-0.0839233	
3.845	-0.0900269	
3.846	-0.0915527	
3.847	-0.0881958	
3.848	-0.0811768	
3.849	-0.0704956	
3.85	-0.0576782	
3.851	-0.0439453	
3.852	-0.0302124	
3.853	-0.0177002	
3.854	-0.00793457	
3.855	-0.00183105	
3.856	-0.000305176	
3.857	-0.00274658	
3.858	-0.00915527	
3.859	-0.0183105	
3.86	-0.0292969	
3.861	-0.0408936	
3.862	-0.0518799	
3.863	-0.0613403	
3.864	-0.0680542	
3.865	-0.0708008	
3.866	-0.0692749	
3.867	-0.0634766	
3.868	-0.0540161	
3.869	-0.0421143	
3.87	-0.0283813	
3.871	-0.0143433	
3.872	-0.000915527	
3.873	0.0109863	
3.874	0.0195312	
3.875	0.0241089	
3.876	0.0241089	
3.877	0.0195312	
3.878	0.0115967	
3.879	0.000610352	
3.88	-0.0115967	
3.881	-0.0244141	
3.882	-0.0357056	
3.883	-0.0445557	
3.884	-0.050354	
3.885	-0.0518799	
3.886	-0.0488281	
3.887	-0.0418091	
3.888	-0.0314331	
3.889	-0.0192261	
3.89	-0.00610352	
3.891	0.00732422	
3.892	0.0198364	
3.893	0.0302124	
3.894	0.0375366	
3.895	0.0408936	
3.896	0.0402832	
3.897	0.0357056	
3.898	0.0283813	
3.899	0.0192261	
3.9	0.00915527	
3.901	-0.000610352	
3.902	-0.00915527	
3.903	-0.0152588	
3.904	-0.0180054	
3.905	-0.0161743	
3.906	-0.010376	
3.907	-0.000915527	
3.908	0.0112915	
3.909	0.0256348	
3.91	0.0405884	
3.911	0.0552368	
3.912	0.0683594	
3.913	0.0793457	
3.914	0.0863647	
3.915	0.0891113	
3.916	0.0872803	
3.917	0.0817871	
3.918	0.0732422	
3.919	0.062561	
3.92	0.0515747	
3.921	0.0415039	
3.922	0.0332642	
3.923	0.0280762	
3.924	0.0265503	
3.925	0.0296021	
3.926	0.0363159	
3.927	0.0460815	
3.928	0.057373	
3.929	0.0701904	
3.93	0.0823975	
3.931	0.093689	
3.932	0.102844	
3.933	0.108948	
3.934	0.111084	
3.935	0.109253	
3.936	0.10376	
3.937	0.0952148	
3.938	0.085144	
3.939	0.0744629	
3.94	0.0646973	
3.941	0.0564575	
3.942	0.0512695	
3.943	0.0497437	
3.944	0.0527954	
3.945	0.06073	
3.946	0.0732422	
3.947	0.0891113	
3.948	0.107422	
3.949	0.127258	
3.95	0.146484	
3.951	0.163269	
3.952	0.176392	
3.953	0.184631	
3.954	0.187378	
3.955	0.184937	
3.956	0.177917	
3.957	0.167847	
3.958	0.155334	
3.959	0.142517	
3.96	0.13031	
3.961	0.119934	
3.962	0.112915	
3.963	0.110168	
3.964	0.112	
3.965	0.117798	
3.966	0.126343	
3.967	0.137634	
3.968	0.150146	
3.969	0.162659	
3.97	0.174561	
3.971	0.184326	
3.972	0.191345	
3.973	0.194092	
3.974	0.192261	
3.975	0.186157	
3.976	0.177002	
3.977	0.166016	
3.978	0.154419	
3.979	0.143738	
3.98	0.135498	
3.981	0.130005	
3.982	0.128479	
3.983	0.131226	
3.984	0.137939	
3.985	0.14801	
3.986	0.160217	
3.987	0.17334	
3.988	0.186462	
3.989	0.198364	
3.99	0.20752	
3.991	0.213928	
3.992	0.216675	
3.993	0.215454	
3.994	0.210266	
3.995	0.202332	
3.996	0.192261	
3.997	0.180054	
3.998	0.166931	
3.999	0.153809	
4	0.141602	
4.001	0.131226	
4.002	0.123901	
4.003	0.120544	
4.004	0.120544	
4.005	0.123901	
4.006	0.1297	
4.007	0.137329	
4.008	0.145569	
4.009	0.153198	
4.01	0.158997	
4.011	0.162048	
4.012	0.160828	
4.013	0.154419	
4.014	0.143433	
4.015	0.128784	
4.016	0.111389	
4.017	0.0924683	
4.018	0.0738525	
4.019	0.0567627	
4.02	0.0421143	
4.021	0.0302124	
4.022	0.0228882	
4.023	0.0198364	
4.024	0.0216675	
4.025	0.0271606	
4.026	0.0350952	
4.027	0.043335	
4.028	0.050354	
4.029	0.0549316	
4.03	0.0567627	
4.031	0.0549316	
4.032	0.0491333	
4.033	0.0393677	
4.034	0.0268555	
4.035	0.0119019	
4.036	-0.00366211	
4.037	-0.0192261	
4.038	-0.0332642	
4.039	-0.0448608	
4.04	-0.0534058	
4.041	-0.0582886	
4.042	-0.0588989	
4.043	-0.0564575	
4.044	-0.0509644	
4.045	-0.043335	
4.046	-0.0341797	
4.047	-0.0247192	
4.048	-0.0161743	
4.049	-0.00915527	
4.05	-0.00488281	
4.051	-0.00457764	
4.052	-0.00854492	
4.053	-0.0158691	
4.054	-0.0259399	
4.055	-0.038147	
4.056	-0.0515747	
4.057	-0.0656128	
4.058	-0.0787354	
4.059	-0.0900269	
4.06	-0.0979614	
4.061	-0.101013	
4.062	-0.0994873	
4.063	-0.0933838	
4.064	-0.0830078	
4.065	-0.0698853	
4.066	-0.0549316	
4.067	-0.0396729	
4.068	-0.0265503	
4.069	-0.0164795	
4.07	-0.0109863	
4.071	-0.0109863	
4.072	-0.0158691	
4.073	-0.0256348	
4.074	-0.0387573	
4.075	-0.0543213	
4.076	-0.0708008	
4.077	-0.0863647	
4.078	-0.100098	
4.079	-0.111389	
4.08	-0.119019	
4.081	-0.122681	
4.082	-0.12207	
4.083	-0.118103	
4.084	-0.111084	
4.085	-0.102234	
4.086	-0.0921631	
4.087	-0.0827026	
4.088	-0.0744629	
4.089	-0.0683594	
4.09	-0.0656128	
4.091	-0.0662231	
4.092	-0.0692749	
4.093	-0.0741577	
4.094	-0.0796509	
4.095	-0.0857544	
4.096	-0.0915527	
4.097	-0.0970459	
4.098	-0.101318	
4.099	-0.103149	
4.1	-0.101624	
4.101	-0.0958252	
4.102	-0.0860596	
4.103	-0.0732422	
4.104	-0.0582886	
4.105	-0.0427246	
4.106	-0.0280762	
4.107	-0.0164795	
4.108	-0.00854492	
4.109	-0.00610352	
4.11	-0.00915527	
4.111	-0.0180054	
4.112	-0.0311279	
4.113	-0.0476074	
4.114	-0.0656128	
4.115	-0.0836182	
4.116	-0.100098	
4.117	-0.114441	
4.118	-0.125732	
4.119	-0.132751	
4.12	-0.135193	
4.121	-0.133362	
4.122	-0.127563	
4.123	-0.118713	
4.124	-0.107727	
4.125	-0.09552	
4.126	-0.083313	
4.127	-0.0717163	
4.128	-0.062561	
4.129	-0.0564575	
4.13	-0.0543213	
4.131	-0.0561523	
4.132	-0.06073	
4.133	-0.0674438	
4.134	-0.0753784	
4.135	-0.0836182	
4.136	-0.0912476	
4.137	-0.0970459	
4.138	-0.100098	
4.139	-0.098877	
4.14	-0.093689	
4.141	-0.0848389	
4.142	-0.0735474	
4.143	-0.0610352	
4.144	-0.0479126	
4.145	-0.0354004	
4.146	-0.0247192	
4.147	-0.0170898	
4.148	-0.0137329	
4.149	-0.0149536	
4.15	-0.0213623	
4.151	-0.0314331	
4.152	-0.0448608	
4.153	-0.0601196	
4.154	-0.0759888	
4.155	-0.0912476	
4.156	-0.104065	
4.157	-0.112915	
4.158	-0.116882	
4.159	-0.115051	
4.16	-0.108032	
4.161	-0.0967407	
4.162	-0.0827026	
4.163	-0.0668335	
4.164	-0.0500488	
4.165	-0.0344849	
4.166	-0.020752	
4.167	-0.0106812	
4.168	-0.00488281	
4.169	-0.00457764	
4.17	-0.00915527	
4.171	-0.0170898	
4.172	-0.027771	
4.173	-0.0396729	
4.174	-0.0509644	
4.175	-0.0610352	
4.176	-0.0689697	
4.177	-0.0741577	
4.178	-0.0759888	
4.179	-0.0738525	
4.18	-0.0683594	
4.181	-0.0601196	
4.182	-0.0500488	
4.183	-0.0384521	
4.184	-0.0265503	
4.185	-0.0152588	
4.186	-0.00518799	
4.187	0.00183105	
4.188	0.00549316	
4.189	0.00518799	
4.19	0.0012207	
4.191	-0.00549316	
4.192	-0.0137329	
4.193	-0.0228882	
4.194	-0.0320435	
4.195	-0.039978	
4.196	-0.0463867	
4.197	-0.0497437	
4.198	-0.0488281	
4.199	-0.0436401	
4.2	-0.03479	
4.201	-0.0228882	
4.202	-0.00946045	
4.203	0.00366211	
4.204	0.0152588	
4.205	0.0241089	
4.206	0.0299072	
4.207	0.0317383	
4.208	0.0289917	
4.209	0.0222778	
4.21	0.0119019	
4.211	-0.000915527	
4.212	-0.0149536	
4.213	-0.0292969	
4.214	-0.0427246	
4.215	-0.0552368	
4.216	-0.0646973	
4.217	-0.0701904	
4.218	-0.0708008	
4.219	-0.0665283	
4.22	-0.0582886	
4.221	-0.0473022	
4.222	-0.0344849	
4.223	-0.0219727	
4.224	-0.0109863	
4.225	-0.00274658	
4.226	0.00183105	
4.227	0.00183105	
4.228	-0.00274658	
4.229	-0.0109863	
4.23	-0.0216675	
4.231	-0.0332642	
4.232	-0.045166	
4.233	-0.0558472	
4.234	-0.0650024	
4.235	-0.0726318	
4.236	-0.0778198	
4.237	-0.0793457	
4.238	-0.0775146	
4.239	-0.0720215	
4.24	-0.0637817	
4.241	-0.0534058	
4.242	-0.0421143	
4.243	-0.0311279	
4.244	-0.0222778	
4.245	-0.0158691	
4.246	-0.0134277	
4.247	-0.0152588	
4.248	-0.0213623	
4.249	-0.0308228	
4.25	-0.043335	
4.251	-0.0576782	
4.252	-0.0720215	
4.253	-0.0848389	
4.254	-0.0942993	
4.255	-0.098877	
4.256	-0.0973511	
4.257	-0.0897217	
4.258	-0.0765991	
4.259	-0.0601196	
4.26	-0.0415039	
4.261	-0.0222778	
4.262	-0.00335693	
4.263	0.0134277	
4.264	0.027771	
4.265	0.0384521	
4.266	0.0445557	
4.267	0.0460815	
4.268	0.0427246	
4.269	0.0357056	
4.27	0.0250244	
4.271	0.0112915	
4.272	-0.00396729	
4.273	-0.0204468	
4.274	-0.0360107	
4.275	-0.0491333	
4.276	-0.0582886	
4.277	-0.0637817	
4.278	-0.0653076	
4.279	-0.0643921	
4.28	-0.0610352	
4.281	-0.0567627	
4.282	-0.0521851	
4.283	-0.0485229	
4.284	-0.0457764	
4.285	-0.0454712	
4.286	-0.0473022	
4.287	-0.0515747	
4.288	-0.0576782	
4.289	-0.0643921	
4.29	-0.0717163	
4.291	-0.0778198	
4.292	-0.0820923	
4.293	-0.083313	
4.294	-0.0808716	
4.295	-0.072937	
4.296	-0.0604248	
4.297	-0.0436401	
4.298	-0.0241089	
4.299	-0.00305176	
4.3	0.0177002	
4.301	0.0369263	
4.302	0.0524902	
4.303	0.0640869	
4.304	0.0698853	
4.305	0.0695801	
4.306	0.0631714	
4.307	0.0515747	
4.308	0.0357056	
4.309	0.017395	
4.31	-0.00274658	
4.311	-0.0222778	
4.312	-0.039978	
4.313	-0.0552368	
4.314	-0.0668335	
4.315	-0.0735474	
4.316	-0.0750732	
4.317	-0.0720215	
4.318	-0.0646973	
4.319	-0.0540161	
4.32	-0.0411987	
4.321	-0.0268555	
4.322	-0.0128174	
4.323	-0.000305176	
4.324	0.00915527	
4.325	0.0143433	
4.326	0.0152588	
4.327	0.0128174	
4.328	0.00762939	
4.329	0.000915527	
4.33	-0.00701904	
4.331	-0.0143433	
4.332	-0.0201416	
4.333	-0.0231934	
4.334	-0.0234985	
4.335	-0.020752	
4.336	-0.015564	
4.337	-0.00854492	
4.338	-0.000305176	
4.339	0.00823975	
4.34	0.0158691	
4.341	0.020752	
4.342	0.022583	
4.343	0.0204468	
4.344	0.0143433	
4.345	0.00457764	
4.346	-0.00823975	
4.347	-0.0228882	
4.348	-0.0390625	
4.349	-0.0558472	
4.35	-0.0720215	
4.351	-0.0860596	
4.352	-0.0970459	
4.353	-0.103455	
4.354	-0.10498	
4.355	-0.101013	
4.356	-0.0921631	
4.357	-0.0796509	
4.358	-0.0640869	
4.359	-0.0476074	
4.36	-0.0314331	
4.361	-0.0167847	
4.362	-0.00457764	
4.363	0.00427246	
4.364	0.0088501	
4.365	0.0088501	
4.366	0.00518799	
4.367	-0.00183105	
4.368	-0.0109863	
4.369	-0.0213623	
4.37	-0.0314331	
4.371	-0.039978	
4.372	-0.0460815	
4.373	-0.0482178	
4.374	-0.0463867	
4.375	-0.0408936	
4.376	-0.032959	
4.377	-0.022583	
4.378	-0.00976562	
4.379	0.00457764	
4.38	0.0195312	
4.381	0.0335693	
4.382	0.0445557	
4.383	0.0509644	
4.384	0.0524902	
4.385	0.0494385	
4.386	0.0418091	
4.387	0.0314331	
4.388	0.0189209	
4.389	0.00549316	
4.39	-0.00732422	
4.391	-0.0186157	
4.392	-0.0268555	
4.393	-0.0314331	
4.394	-0.0323486	
4.395	-0.0296021	
4.396	-0.0241089	
4.397	-0.0170898	
4.398	-0.00915527	
4.399	-0.00213623	
4.4	0.00335693	
4.401	0.00610352	
4.402	0.00610352	
4.403	0.00244141	
4.404	-0.00427246	
4.405	-0.0134277	
4.406	-0.0234985	
4.407	-0.0338745	
4.408	-0.0427246	
4.409	-0.0497437	
4.41	-0.0534058	
4.411	-0.0531006	
4.412	-0.0482178	
4.413	-0.0387573	
4.414	-0.0250244	
4.415	-0.00793457	
4.416	0.0112915	
4.417	0.0317383	
4.418	0.0518799	
4.419	0.071106	
4.42	0.0872803	
4.421	0.0994873	
4.422	0.106506	
4.423	0.108643	
4.424	0.106506	
4.425	0.101318	
4.426	0.093689	
4.427	0.0845337	
4.428	0.0750732	
4.429	0.0662231	
4.43	0.0592041	
4.431	0.0546265	
4.432	0.0540161	
4.433	0.0576782	
4.434	0.0650024	
4.435	0.0753784	
4.436	0.0869751	
4.437	0.0985718	
4.438	0.109558	
4.439	0.119324	
4.44	0.126953	
4.441	0.131531	
4.442	0.131836	
4.443	0.126953	
4.444	0.117188	
4.445	0.102539	
4.446	0.085144	
4.447	0.065918	
4.448	0.0476074	
4.449	0.0314331	
4.45	0.0189209	
4.451	0.0106812	
4.452	0.00732422	
4.453	0.0088501	
4.454	0.0146484	
4.455	0.0231934	
4.456	0.0335693	
4.457	0.0442505	
4.458	0.0540161	
4.459	0.0619507	
4.46	0.0662231	
4.461	0.0665283	
4.462	0.0622559	
4.463	0.0540161	
4.464	0.0427246	
4.465	0.0289917	
4.466	0.0137329	
4.467	-0.00244141	
4.468	-0.0183105	
4.469	-0.0323486	
4.47	-0.0439453	
4.471	-0.0515747	
4.472	-0.0549316	
4.473	-0.0546265	
4.474	-0.0506592	
4.475	-0.0442505	
4.476	-0.0363159	
4.477	-0.027771	
4.478	-0.0204468	
4.479	-0.0149536	
4.48	-0.0119019	
4.481	-0.0119019	
4.482	-0.015564	
4.483	-0.0222778	
4.484	-0.0308228	
4.485	-0.0405884	
4.486	-0.0509644	
4.487	-0.0598145	
4.488	-0.0665283	
4.489	-0.0695801	
4.49	-0.0683594	
4.491	-0.062561	
4.492	-0.0531006	
4.493	-0.0405884	
4.494	-0.0265503	
4.495	-0.0119019	
4.496	0.00183105	
4.497	0.0137329	
4.498	0.022583	
4.499	0.0274658	
4.5	0.027771	
4.501	0.0234985	
4.502	0.015564	
4.503	0.00457764	
4.504	-0.00946045	
4.505	-0.0253296	
4.506	-0.0415039	
4.507	-0.0558472	
4.508	-0.0674438	
4.509	-0.0750732	
4.51	-0.078125	
4.511	-0.0769043	
4.512	-0.0704956	
4.513	-0.0595093	
4.514	-0.0448608	
4.515	-0.0271606	
4.516	-0.00762939	
4.517	0.0115967	
4.518	0.0292969	
4.519	0.043335	
4.52	0.0515747	
4.521	0.0537109	
4.522	0.0506592	
4.523	0.043335	
4.524	0.0332642	
4.525	0.0213623	
4.526	0.00915527	
4.527	-0.00152588	
4.528	-0.010376	
4.529	-0.015564	
4.53	-0.017395	
4.531	-0.0152588	
4.532	-0.0100708	
4.533	-0.00213623	
4.534	0.00762939	
4.535	0.0183105	
4.536	0.0283813	
4.537	0.0363159	
4.538	0.0415039	
4.539	0.043335	
4.54	0.0415039	
4.541	0.0366211	
4.542	0.0292969	
4.543	0.0213623	
4.544	0.0140381	
4.545	0.00946045	
4.546	0.00854492	
4.547	0.0128174	
4.548	0.0238037	
4.549	0.0421143	
4.55	0.0692749	
4.551	0.105286	
4.552	0.150146	
4.553	0.203247	
4.554	0.263672	
4.555	0.3302	
4.556	0.400696	
4.557	0.472717	
4.558	0.544434	
4.559	0.613403	
4.56	0.678406	
4.561	0.739441	
4.562	0.795288	
4.563	0.846252	
4.564	0.892334	
4.565	0.933838	
4.566	0.971375	
4.567	1.00372	
4.568	1.03027	
4.569	1.0498	
4.57	1.0614	
4.571	1.06354	
4.572	1.05621	
4.573	1.03882	
4.574	1.01196	
4.575	0.975342	
4.576	0.929565	
4.577	0.874023	
4.578	0.808716	
4.579	0.733643	
4.58	0.650635	
4.581	0.562439	
4.582	0.471497	
4.583	0.380249	
4.584	0.291138	
4.585	0.206909	
4.586	0.130005	
4.587	0.0616455	
4.588	0.00396729	
4.589	-0.0424194	
4.59	-0.0775146	
4.591	-0.101929	
4.592	-0.117493	
4.593	-0.125122	
4.594	-0.126648	
4.595	-0.124817	
4.596	-0.12146	
4.597	-0.117798	
4.598	-0.115051	
4.599	-0.113831	
4.6	-0.113831	
4.601	-0.114746	
4.602	-0.116272	
4.603	-0.118408	
4.604	-0.119629	
4.605	-0.119629	
4.606	-0.117188	
4.607	-0.111694	
4.608	-0.102234	
4.609	-0.0881958	
4.61	-0.071106	
4.611	-0.0521851	
4.612	-0.032959	
4.613	-0.0152588	
4.614	-0.000610352	
4.615	0.00976562	
4.616	0.0146484	
4.617	0.0137329	
4.618	0.00640869	
4.619	-0.00579834	
4.62	-0.0213623	
4.621	-0.0393677	
4.622	-0.0582886	
4.623	-0.0772095	
4.624	-0.0942993	
4.625	-0.109558	
4.626	-0.12146	
4.627	-0.129395	
4.628	-0.132751	
4.629	-0.131226	
4.63	-0.125122	
4.631	-0.115051	
4.632	-0.102539	
4.633	-0.0888062	
4.634	-0.0753784	
4.635	-0.0631714	
4.636	-0.0527954	
4.637	-0.0457764	
4.638	-0.0430298	
4.639	-0.0448608	
4.64	-0.0506592	
4.641	-0.0598145	
4.642	-0.0708008	
4.643	-0.0817871	
4.644	-0.0912476	
4.645	-0.0973511	
4.646	-0.0997925	
4.647	-0.0982666	
4.648	-0.0933838	
4.649	-0.0857544	
4.65	-0.0759888	
4.651	-0.0653076	
4.652	-0.0543213	
4.653	-0.0439453	
4.654	-0.0354004	
4.655	-0.0292969	
4.656	-0.0262451	
4.657	-0.0265503	
4.658	-0.0308228	
4.659	-0.0378418	
4.66	-0.0473022	
4.661	-0.0579834	
4.662	-0.0686646	
4.663	-0.0778198	
4.664	-0.0845337	
4.665	-0.0881958	
4.666	-0.0878906	
4.667	-0.083313	
4.668	-0.0753784	
4.669	-0.0653076	
4.67	-0.0540161	
4.671	-0.0418091	
4.672	-0.0296021	
4.673	-0.017395	
4.674	-0.00701904	
4.675	0.000915527	
4.676	0.00518799	
4.677	0.00457764	
4.678	0	
4.679	-0.00793457	
4.68	-0.0183105	
4.681	-0.0292969	
4.682	-0.039978	
4.683	-0.0491333	
4.684	-0.0552368	
4.685	-0.0579834	
4.686	-0.0561523	
4.687	-0.0491333	
4.688	-0.0372314	
4.689	-0.0222778	
4.69	-0.00518799	
4.691	0.0128174	
4.692	0.0302124	
4.693	0.0454712	
4.694	0.0576782	
4.695	0.0646973	
4.696	0.0656128	
4.697	0.0601196	
4.698	0.0494385	
4.699	0.0354004	
4.7	0.0189209	
4.701	0.00213623	
4.702	-0.0131226	
4.703	-0.0256348	
4.704	-0.0344849	
4.705	-0.0387573	
4.706	-0.0384521	
4.707	-0.0341797	
4.708	-0.0265503	
4.709	-0.0158691	
4.71	-0.00244141	
4.711	0.0137329	
4.712	0.0302124	
4.713	0.0457764	
4.714	0.0592041	
4.715	0.0695801	
4.716	0.0762939	
4.717	0.0787354	
4.718	0.0772095	
4.719	0.0726318	
4.72	0.0653076	
4.721	0.0567627	
4.722	0.0485229	
4.723	0.0415039	
4.724	0.0375366	
4.725	0.0372314	
4.726	0.0408936	
4.727	0.0482178	
4.728	0.0582886	
4.729	0.0704956	
4.73	0.0827026	
4.731	0.093689	
4.732	0.102234	
4.733	0.108032	
4.734	0.110168	
4.735	0.108032	
4.736	0.101624	
4.737	0.0921631	
4.738	0.0805664	
4.739	0.0680542	
4.74	0.055542	
4.741	0.0448608	
4.742	0.0369263	
4.743	0.032959	
4.744	0.0332642	
4.745	0.0378418	
4.746	0.0460815	
4.747	0.057373	
4.748	0.0695801	
4.749	0.0820923	
4.75	0.0949097	
4.751	0.107422	
4.752	0.118713	
4.753	0.127563	
4.754	0.132751	
4.755	0.133667	
4.756	0.13092	
4.757	0.124817	
4.758	0.117493	
4.759	0.110474	
4.76	0.104675	
4.761	0.100098	
4.762	0.0961304	
4.763	0.093689	
4.764	0.0930786	
4.765	0.0961304	
4.766	0.101929	
4.767	0.110779	
4.768	0.121765	
4.769	0.134277	
4.77	0.14679	
4.771	0.158081	
4.772	0.167236	
4.773	0.173035	
4.774	0.173645	
4.775	0.169373	
4.776	0.160522	
4.777	0.147705	
4.778	0.132446	
4.779	0.115356	
4.78	0.0985718	
4.781	0.0836182	
4.782	0.0732422	
4.783	0.0680542	
4.784	0.0686646	
4.785	0.0735474	
4.786	0.0814819	
4.787	0.0912476	
4.788	0.101624	
4.789	0.111694	
4.79	0.120544	
4.791	0.126953	
4.792	0.1297	
4.793	0.127563	
4.794	0.120239	
4.795	0.108337	
4.796	0.0927734	
4.797	0.0747681	
4.798	0.0558472	
4.799	0.0372314	
4.8	0.0195312	
4.801	0.00366211	
4.802	-0.010376	
4.803	-0.0204468	
4.804	-0.0265503	
4.805	-0.0283813	
4.806	-0.0262451	
4.807	-0.0210571	
4.808	-0.0140381	
4.809	-0.00640869	
4.81	0.0012207	
4.811	0.00701904	
4.812	0.0106812	
4.813	0.0106812	
4.814	0.00671387	
4.815	-0.000610352	
4.816	-0.0106812	
4.817	-0.0222778	
4.818	-0.0344849	
4.819	-0.0460815	
4.82	-0.0561523	
4.821	-0.0637817	
4.822	-0.0674438	
4.823	-0.0668335	
4.824	-0.0622559	
4.825	-0.0543213	
4.826	-0.0445557	
4.827	-0.0341797	
4.828	-0.0244141	
4.829	-0.0161743	
4.83	-0.010376	
4.831	-0.00793457	
4.832	-0.010376	
4.833	-0.017395	
4.834	-0.0283813	
4.835	-0.0421143	
4.836	-0.0579834	
4.837	-0.0750732	
4.838	-0.0924683	
4.839	-0.109253	
4.84	-0.123596	
4.841	-0.134888	
4.842	-0.141296	
4.843	-0.142212	
4.844	-0.137939	
4.845	-0.129395	
4.846	-0.117188	
4.847	-0.103149	
4.848	-0.0894165	
4.849	-0.078125	
4.85	-0.0701904	
4.851	-0.0668335	
4.852	-0.0680542	
4.853	-0.0738525	
4.854	-0.0839233	
4.855	-0.0970459	
4.856	-0.112915	
4.857	-0.129395	
4.858	-0.144958	
4.859	-0.157166	
4.86	-0.164795	
4.861	-0.167542	
4.862	-0.1651	
4.863	-0.158386	
4.864	-0.149231	
4.865	-0.137939	
4.866	-0.125732	
4.867	-0.112915	
4.868	-0.100403	
4.869	-0.0894165	
4.87	-0.0808716	
4.871	-0.0756836	
4.872	-0.0750732	
4.873	-0.078125	
4.874	-0.0845337	
4.875	-0.0927734	
4.876	-0.102844	
4.877	-0.113831	
4.878	-0.124207	
4.879	-0.133362	
4.88	-0.140076	
4.881	-0.143127	
4.882	-0.141602	
4.883	-0.136414	
4.884	-0.128174	
4.885	-0.117493	
4.886	-0.105896	
4.887	-0.093689	
4.888	-0.0820923	
4.889	-0.0723267	
4.89	-0.0656128	
4.891	-0.0628662	
4.892	-0.0637817	
4.893	-0.067749	
4.894	-0.0744629	
4.895	-0.083313	
4.896	-0.093689	
4.897	-0.10376	
4.898	-0.113525	
4.899	-0.12146	
4.9	-0.126953	
4.901	-0.128174	
4.902	-0.125122	
4.903	-0.117798	
4.904	-0.107117	
4.905	-0.0946045	
4.906	-0.0814819	
4.907	-0.0695801	
4.908	-0.0595093	
4.909	-0.0534058	
4.91	-0.0518799	
4.911	-0.055542	
4.912	-0.0643921	
4.913	-0.0775146	
4.914	-0.0924683	
4.915	-0.108032	
4.916	-0.122375	
4.917	-0.135498	
4.918	-0.14679	
4.919	-0.154724	
4.92	-0.158386	
4.921	-0.157166	
4.922	-0.151672	
4.923	-0.142517	
4.924	-0.13031	
4.925	-0.116272	
4.926	-0.101624	
4.927	-0.0881958	
4.928	-0.0765991	
4.929	-0.0686646	
4.93	-0.0653076	
4.931	-0.0665283	
4.932	-0.0720215	
4.933	-0.0805664	
4.934	-0.0906372	
4.935	-0.100708	
4.936	-0.110474	
4.937	-0.119019	
4.938	-0.125732	
4.939	-0.129395	
4.94	-0.1297	
4.941	-0.126343	
4.942	-0.119019	
4.943	-0.108032	
4.944	-0.0942993	
4.945	-0.0793457	
4.946	-0.0650024	
4.947	-0.0534058	
4.948	-0.045166	
4.949	-0.0415039	
4.95	-0.0421143	
4.951	-0.0466919	
4.952	-0.0549316	
4.953	-0.065918	
4.954	-0.0793457	
4.955	-0.093689	
4.956	-0.107727	
4.957	-0.120239	
4.958	-0.129395	
4.959	-0.133667	
4.96	-0.133362	
4.961	-0.128174	
4.962	-0.119629	
4.963	-0.108643	
4.964	-0.0961304	
4.965	-0.083313	
4.966	-0.0708008	
4.967	-0.0601196	
4.968	-0.0521851	
4.969	-0.0476074	
4.97	-0.0466919	
4.971	-0.0485229	
4.972	-0.0531006	
4.973	-0.06073	
4.974	-0.0704956	
4.975	-0.0814819	
4.976	-0.0918579	
4.977	-0.0997925	
4.978	-0.104065	
4.979	-0.10376	
4.98	-0.0994873	
4.981	-0.0921631	
4.982	-0.0827026	
4.983	-0.0717163	
4.984	-0.0604248	
4.985	-0.050354	
4.986	-0.0427246	
4.987	-0.0378418	
4.988	-0.0369263	
4.989	-0.0405884	
4.99	-0.0482178	
4.991	-0.0588989	
4.992	-0.0717163	
4.993	-0.0860596	
4.994	-0.100403	
4.995	-0.113525	
4.996	-0.124512	
4.997	-0.131836	
4.998	-0.134888	
4.999	-0.133057	
5	-0.127258	
5.001	-0.118408	
5.002	-0.107422	
5.003	-0.0946045	
5.004	-0.0814819	
5.005	-0.0680542	
5.006	-0.0561523	
5.007	-0.0473022	
5.008	-0.0430298	
5.009	-0.0439453	
5.01	-0.0494385	
5.011	-0.0582886	
5.012	-0.0695801	
5.013	-0.0808716	
5.014	-0.0915527	
5.015	-0.100708	
5.016	-0.107117	
5.017	-0.109863	
5.018	-0.108337	
5.019	-0.101929	
5.02	-0.0915527	
5.021	-0.078125	
5.022	-0.0622559	
5.023	-0.0457764	
5.024	-0.0296021	
5.025	-0.0158691	
5.026	-0.00579834	
5.027	-0.000305176	
5.028	-0.000610352	
5.029	-0.00549316	
5.03	-0.0143433	
5.031	-0.0262451	
5.032	-0.039978	
5.033	-0.0543213	
5.034	-0.067749	
5.035	-0.0796509	
5.036	-0.0888062	
5.037	-0.0946045	
5.038	-0.0958252	
5.039	-0.0924683	
5.04	-0.0854492	
5.041	-0.0753784	
5.042	-0.0640869	
5.043	-0.0524902	
5.044	-0.0418091	
5.045	-0.032959	
5.046	-0.0262451	
5.047	-0.0228882	
5.048	-0.0231934	
5.049	-0.0268555	
5.05	-0.0332642	
5.051	-0.0421143	
5.052	-0.0527954	
5.053	-0.0646973	
5.054	-0.0759888	
5.055	-0.0863647	
5.056	-0.0939941	
5.057	-0.0976562	
5.058	-0.0967407	
5.059	-0.0912476	
5.06	-0.0817871	
5.061	-0.0698853	
5.062	-0.0564575	
5.063	-0.0439453	
5.064	-0.0335693	
5.065	-0.0262451	
5.066	-0.0238037	
5.067	-0.0256348	
5.068	-0.0314331	
5.069	-0.039978	
5.07	-0.050354	
5.071	-0.0613403	
5.072	-0.0720215	
5.073	-0.0820923	
5.074	-0.0912476	
5.075	-0.0985718	
5.076	-0.102539	
5.077	-0.101929	
5.078	-0.0967407	
5.079	-0.0875854	
5.08	-0.0750732	
5.081	-0.0613403	
5.082	-0.0469971	
5.083	-0.0344849	
5.084	-0.0247192	
5.085	-0.0189209	
5.086	-0.0180054	
5.087	-0.0222778	
5.088	-0.0305176	
5.089	-0.0415039	
5.09	-0.0543213	
5.091	-0.067749	
5.092	-0.0802612	
5.093	-0.0909424	
5.094	-0.0985718	
5.095	-0.102844	
5.096	-0.102539	
5.097	-0.0976562	
5.098	-0.0888062	
5.099	-0.0769043	
5.1	-0.0628662	
5.101	-0.0479126	
5.102	-0.0332642	
5.103	-0.0201416	
5.104	-0.0100708	
5.105	-0.00366211	
5.106	-0.00183105	
5.107	-0.00488281	
5.108	-0.012207	
5.109	-0.022583	
5.11	-0.0354004	
5.111	-0.0488281	
5.112	-0.0619507	
5.113	-0.0735474	
5.114	-0.0827026	
5.115	-0.0881958	
5.116	-0.0891113	
5.117	-0.0860596	
5.118	-0.0793457	
5.119	-0.0695801	
5.12	-0.0585938	
5.121	-0.0469971	
5.122	-0.0360107	
5.123	-0.0265503	
5.124	-0.0198364	
5.125	-0.0170898	
5.126	-0.0186157	
5.127	-0.0244141	
5.128	-0.0335693	
5.129	-0.0448608	
5.13	-0.0567627	
5.131	-0.0683594	
5.132	-0.078125	
5.133	-0.0854492	
5.134	-0.0894165	
5.135	-0.0894165	
5.136	-0.085144	
5.137	-0.0772095	
5.138	-0.0662231	
5.139	-0.0537109	
5.14	-0.0396729	
5.141	-0.0262451	
5.142	-0.0140381	
5.143	-0.00457764	
5.144	0.0012207	
5.145	0.00213623	
5.146	-0.00183105	
5.147	-0.00976562	
5.148	-0.0210571	
5.149	-0.0341797	
5.15	-0.0482178	
5.151	-0.0616455	
5.152	-0.0738525	
5.153	-0.083313	
5.154	-0.0894165	
5.155	-0.0912476	
5.156	-0.088501	
5.157	-0.0817871	
5.158	-0.0720215	
5.159	-0.0601196	
5.16	-0.0473022	
5.161	-0.0350952	
5.162	-0.0241089	
5.163	-0.0161743	
5.164	-0.0115967	
5.165	-0.0112915	
5.166	-0.0152588	
5.167	-0.022583	
5.168	-0.0320435	
5.169	-0.0430298	
5.17	-0.0543213	
5.171	-0.0643921	
5.172	-0.0726318	
5.173	-0.078125	
5.174	-0.0802612	
5.175	-0.078125	
5.176	-0.0726318	
5.177	-0.0637817	
5.178	-0.0527954	
5.179	-0.0408936	
5.18	-0.0286865	
5.181	-0.017395	
5.182	-0.00823975	
5.183	-0.00244141	
5.184	-0.0012207	
5.185	-0.00427246	
5.186	-0.0112915	
5.187	-0.0210571	
5.188	-0.0320435	
5.189	-0.0436401	
5.19	-0.0540161	
5.191	-0.0622559	
5.192	-0.067749	
5.193	-0.0698853	
5.194	-0.067749	
5.195	-0.0616455	
5.196	-0.0527954	
5.197	-0.0418091	
5.198	-0.0296021	
5.199	-0.0167847	
5.2	-0.00518799	
5.201	0.00427246	
5.202	0.0109863	
5.203	0.0137329	
5.204	0.0128174	
5.205	0.00823975	
5.206	0.000915527	
5.207	-0.0088501	
5.208	-0.0201416	
5.209	-0.0317383	
5.21	-0.0421143	
5.211	-0.0497437	
5.212	-0.0537109	
5.213	-0.0534058	
5.214	-0.0485229	
5.215	-0.0396729	
5.216	-0.0271606	
5.217	-0.0125122	
5.218	0.00396729	
5.219	0.020752	
5.22	0.0363159	
5.221	0.0500488	
5.222	0.06073	
5.223	0.0671387	
5.224	0.0689697	
5.225	0.0671387	
5.226	0.0622559	
5.227	0.0546265	
5.228	0.0457764	
5.229	0.0360107	
5.23	0.0271606	
5.231	0.0195312	
5.232	0.0146484	
5.233	0.0134277	
5.234	0.015564	
5.235	0.0210571	
5.236	0.0283813	
5.237	0.0375366	
5.238	0.0473022	
5.239	0.0564575	
5.24	0.0640869	
5.241	0.0692749	
5.242	0.0701904	
5.243	0.0668335	
5.244	0.0592041	
5.245	0.0476074	
5.246	0.032959	
5.247	0.0167847	
5.248	0	
5.249	-0.0161743	
5.25	-0.0308228	
5.251	-0.0424194	
5.252	-0.0497437	
5.253	-0.0524902	
5.254	-0.0506592	
5.255	-0.045166	
5.256	-0.0372314	
5.257	-0.0274658	
5.258	-0.0180054	
5.259	-0.00946045	
5.26	-0.00274658	
5.261	0.000915527	
5.262	0.000915527	
5.263	-0.00335693	
5.264	-0.0106812	
5.265	-0.0210571	
5.266	-0.0332642	
5.267	-0.0466919	
5.268	-0.0598145	
5.269	-0.0717163	
5.27	-0.0811768	
5.271	-0.0869751	
5.272	-0.0888062	
5.273	-0.0863647	
5.274	-0.0802612	
5.275	-0.071106	
5.276	-0.0598145	
5.277	-0.0476074	
5.278	-0.0357056	
5.279	-0.0253296	
5.28	-0.017395	
5.281	-0.0131226	
5.282	-0.0131226	
5.283	-0.0177002	
5.284	-0.0256348	
5.285	-0.0366211	
5.286	-0.0491333	
5.287	-0.0622559	
5.288	-0.0747681	
5.289	-0.085144	
5.29	-0.0927734	
5.291	-0.0964355	
5.292	-0.09552	
5.293	-0.0900269	
5.294	-0.0811768	
5.295	-0.0692749	
5.296	-0.055542	
5.297	-0.0415039	
5.298	-0.0280762	
5.299	-0.0167847	
5.3	-0.00854492	
5.301	-0.00457764	
5.302	-0.00549316	
5.303	-0.0100708	
5.304	-0.0183105	
5.305	-0.0286865	
5.306	-0.0405884	
5.307	-0.0524902	
5.308	-0.0634766	
5.309	-0.0720215	
5.31	-0.0778198	
5.311	-0.0793457	
5.312	-0.0772095	
5.313	-0.0714111	
5.314	-0.0634766	
5.315	-0.0540161	
5.316	-0.0442505	
5.317	-0.0357056	
5.318	-0.0296021	
5.319	-0.0268555	
5.32	-0.027771	
5.321	-0.0323486	
5.322	-0.039978	
5.323	-0.0497437	
5.324	-0.0613403	
5.325	-0.0738525	
5.326	-0.0866699	
5.327	-0.098877	
5.328	-0.109558	
5.329	-0.116882	
5.33	-0.119934	
5.331	-0.117493	
5.332	-0.109558	
5.333	-0.0970459	
5.334	-0.0808716	
5.335	-0.0616455	
5.336	-0.0408936	
5.337	-0.0204468	
5.338	-0.000915527	
5.339	0.0164795	
5.34	0.0311279	
5.341	0.0424194	
5.342	0.0512695	
5.343	0.0585938	
5.344	0.0665283	
5.345	0.0759888	
5.346	0.0891113	
5.347	0.107422	
5.348	0.132446	
5.349	0.165405	
5.35	0.207214	
5.351	0.258484	
5.352	0.318909	
5.353	0.387573	
5.354	0.462646	
5.355	0.542297	
5.356	0.624084	
5.357	0.705566	
5.358	0.783997	
5.359	0.856628	
5.36	0.921936	
5.361	0.978394	
5.362	1.02539	
5.363	1.06262	
5.364	1.08887	
5.365	1.10413	
5.366	1.1084	
5.367	1.1026	
5.368	1.08734	
5.369	1.06445	
5.37	1.03485	
5.371	0.999146	
5.372	0.957336	
5.373	0.909119	
5.374	0.854492	
5.375	0.794067	
5.376	0.726929	
5.377	0.654297	
5.378	0.576477	
5.379	0.49408	
5.38	0.40802	
5.381	0.320435	
5.382	0.233765	
5.383	0.150452	
5.384	0.0726318	
5.385	0.00244141	
5.386	-0.0585938	
5.387	-0.108948	
5.388	-0.147705	
5.389	-0.174561	
5.39	-0.189514	
5.391	-0.194397	
5.392	-0.19104	
5.393	-0.181274	
5.394	-0.166931	
5.395	-0.149841	
5.396	-0.131531	
5.397	-0.114136	
5.398	-0.0985718	
5.399	-0.0869751	
5.4	-0.0793457	
5.401	-0.0756836	
5.402	-0.0759888	
5.403	-0.0790405	
5.404	-0.0842285	
5.405	-0.090332	
5.406	-0.0958252	
5.407	-0.100403	
5.408	-0.101929	
5.409	-0.100098	
5.41	-0.0952148	
5.411	-0.0878906	
5.412	-0.0790405	
5.413	-0.0689697	
5.414	-0.0585938	
5.415	-0.0491333	
5.416	-0.0411987	
5.417	-0.0363159	
5.418	-0.0344849	
5.419	-0.0369263	
5.42	-0.0427246	
5.421	-0.0515747	
5.422	-0.062561	
5.423	-0.0744629	
5.424	-0.0863647	
5.425	-0.0967407	
5.426	-0.104675	
5.427	-0.109558	
5.428	-0.110168	
5.429	-0.106506	
5.43	-0.0985718	
5.431	-0.0875854	
5.432	-0.0744629	
5.433	-0.0598145	
5.434	-0.0448608	
5.435	-0.0314331	
5.436	-0.0201416	
5.437	-0.012207	
5.438	-0.0088501	
5.439	-0.0100708	
5.44	-0.0152588	
5.441	-0.0234985	
5.442	-0.0338745	
5.443	-0.0448608	
5.444	-0.0558472	
5.445	-0.0650024	
5.446	-0.0717163	
5.447	-0.0750732	
5.448	-0.0747681	
5.449	-0.0701904	
5.45	-0.0622559	
5.451	-0.0518799	
5.452	-0.0393677	
5.453	-0.0265503	
5.454	-0.0140381	
5.455	-0.00335693	
5.456	0.00427246	
5.457	0.00732422	
5.458	0.00610352	
5.459	0.000610352	
5.46	-0.00823975	
5.461	-0.0192261	
5.462	-0.0317383	
5.463	-0.0439453	
5.464	-0.0552368	
5.465	-0.0643921	
5.466	-0.0701904	
5.467	-0.0717163	
5.468	-0.0689697	
5.469	-0.0619507	
5.47	-0.0518799	
5.471	-0.0396729	
5.472	-0.0262451	
5.473	-0.0125122	
5.474	0.000610352	
5.475	0.0115967	
5.476	0.0198364	
5.477	0.0238037	
5.478	0.0238037	
5.479	0.0195312	
5.48	0.0119019	
5.481	0.00213623	
5.482	-0.00915527	
5.483	-0.0201416	
5.484	-0.0302124	
5.485	-0.0375366	
5.486	-0.0418091	
5.487	-0.0415039	
5.488	-0.0372314	
5.489	-0.0292969	
5.49	-0.0183105	
5.491	-0.00549316	
5.492	0.00823975	
5.493	0.0219727	
5.494	0.03479	
5.495	0.045166	
5.496	0.0518799	
5.497	0.0540161	
5.498	0.0518799	
5.499	0.0460815	
5.5	0.0372314	
5.501	0.0268555	
5.502	0.0161743	
5.503	0.00701904	
5.504	0.000305176	
5.505	-0.00305176	
5.506	-0.00244141	
5.507	0.00305176	
5.508	0.0125122	
5.509	0.0250244	
5.51	0.0396729	
5.511	0.055542	
5.512	0.071106	
5.513	0.085144	
5.514	0.0970459	
5.515	0.105591	
5.516	0.109253	
5.517	0.108032	
5.518	0.102844	
5.519	0.0939941	
5.52	0.083313	
5.521	0.0717163	
5.522	0.0610352	
5.523	0.0521851	
5.524	0.0454712	
5.525	0.0421143	
5.526	0.043335	
5.527	0.0488281	
5.528	0.0579834	
5.529	0.0701904	
5.53	0.0845337	
5.531	0.100098	
5.532	0.115051	
5.533	0.128174	
5.534	0.138245	
5.535	0.143738	
5.536	0.144348	
5.537	0.140381	
5.538	0.132141	
5.539	0.12146	
5.54	0.108948	
5.541	0.0964355	
5.542	0.085144	
5.543	0.0762939	
5.544	0.0708008	
5.545	0.0695801	
5.546	0.0732422	
5.547	0.0811768	
5.548	0.0930786	
5.549	0.107727	
5.55	0.123901	
5.551	0.140686	
5.552	0.15625	
5.553	0.169678	
5.554	0.180664	
5.555	0.187683	
5.556	0.19043	
5.557	0.189819	
5.558	0.185547	
5.559	0.178833	
5.56	0.170898	
5.561	0.162354	
5.562	0.155029	
5.563	0.149231	
5.564	0.146179	
5.565	0.146179	
5.566	0.149536	
5.567	0.155945	
5.568	0.16449	
5.569	0.174561	
5.57	0.185242	
5.571	0.195618	
5.572	0.204468	
5.573	0.210571	
5.574	0.213013	
5.575	0.210876	
5.576	0.204468	
5.577	0.194702	
5.578	0.18219	
5.579	0.167847	
5.58	0.153198	
5.581	0.138855	
5.582	0.125732	
5.583	0.115356	
5.584	0.108032	
5.585	0.10437	
5.586	0.104065	
5.587	0.106506	
5.588	0.110779	
5.589	0.115662	
5.59	0.12085	
5.591	0.124817	
5.592	0.126648	
5.593	0.126343	
5.594	0.122681	
5.595	0.115356	
5.596	0.105286	
5.597	0.0924683	
5.598	0.0778198	
5.599	0.0619507	
5.6	0.0460815	
5.601	0.0317383	
5.602	0.0201416	
5.603	0.012207	
5.604	0.0088501	
5.605	0.010376	
5.606	0.0158691	
5.607	0.0247192	
5.608	0.0357056	
5.609	0.0476074	
5.61	0.0585938	
5.611	0.0680542	
5.612	0.0741577	
5.613	0.0762939	
5.614	0.0732422	
5.615	0.0650024	
5.616	0.0524902	
5.617	0.0366211	
5.618	0.0180054	
5.619	-0.0012207	
5.62	-0.0201416	
5.621	-0.0375366	
5.622	-0.0515747	
5.623	-0.0613403	
5.624	-0.065918	
5.625	-0.0650024	
5.626	-0.0598145	
5.627	-0.0509644	
5.628	-0.039978	
5.629	-0.027771	
5.63	-0.0161743	
5.631	-0.00610352	
5.632	0.000610352	
5.633	0.00366211	
5.634	0.00183105	
5.635	-0.00396729	
5.636	-0.0131226	
5.637	-0.0253296	
5.638	-0.0390625	
5.639	-0.0524902	
5.64	-0.0653076	
5.641	-0.0756836	
5.642	-0.0836182	
5.643	-0.0872803	
5.644	-0.0872803	
5.645	-0.0830078	
5.646	-0.0756836	
5.647	-0.0662231	
5.648	-0.0552368	
5.649	-0.0445557	
5.65	-0.0350952	
5.651	-0.027771	
5.652	-0.0241089	
5.653	-0.0244141	
5.654	-0.0289917	
5.655	-0.0369263	
5.656	-0.0479126	
5.657	-0.0604248	
5.658	-0.0735474	
5.659	-0.0860596	
5.66	-0.0970459	
5.661	-0.104675	
5.662	-0.108643	
5.663	-0.107727	
5.664	-0.102539	
5.665	-0.0939941	
5.666	-0.0823975	
5.667	-0.0695801	
5.668	-0.0561523	
5.669	-0.043335	
5.67	-0.032959	
5.671	-0.0253296	
5.672	-0.0219727	
5.673	-0.0231934	
5.674	-0.0286865	
5.675	-0.0375366	
5.676	-0.0485229	
5.677	-0.06073	
5.678	-0.072937	
5.679	-0.0839233	
5.68	-0.0930786	
5.681	-0.098877	
5.682	-0.100403	
5.683	-0.0976562	
5.684	-0.0912476	
5.685	-0.0817871	
5.686	-0.0701904	
5.687	-0.0576782	
5.688	-0.0454712	
5.689	-0.0344849	
5.69	-0.0262451	
5.691	-0.0219727	
5.692	-0.022583	
5.693	-0.027771	
5.694	-0.0369263	
5.695	-0.0485229	
5.696	-0.0610352	
5.697	-0.0735474	
5.698	-0.0848389	
5.699	-0.0942993	
5.7	-0.100708	
5.701	-0.104065	
5.702	-0.102844	
5.703	-0.0976562	
5.704	-0.0891113	
5.705	-0.0778198	
5.706	-0.0646973	
5.707	-0.0506592	
5.708	-0.0369263	
5.709	-0.0247192	
5.71	-0.0149536	
5.711	-0.00915527	
5.712	-0.00823975	
5.713	-0.0115967	
5.714	-0.0189209	
5.715	-0.0289917	
5.716	-0.0408936	
5.717	-0.0534058	
5.718	-0.0650024	
5.719	-0.0750732	
5.72	-0.0823975	
5.721	-0.0857544	
5.722	-0.0848389	
5.723	-0.0796509	
5.724	-0.0714111	
5.725	-0.06073	
5.726	-0.0488281	
5.727	-0.0360107	
5.728	-0.0244141	
5.729	-0.0149536	
5.73	-0.00915527	
5.731	-0.00732422	
5.732	-0.010376	
5.733	-0.0170898	
5.734	-0.0268555	
5.735	-0.0384521	
5.736	-0.0512695	
5.737	-0.0628662	
5.738	-0.0726318	
5.739	-0.0790405	
5.74	-0.0817871	
5.741	-0.0799561	
5.742	-0.0738525	
5.743	-0.0643921	
5.744	-0.0524902	
5.745	-0.0390625	
5.746	-0.0247192	
5.747	-0.0112915	
5.748	0.000610352	
5.749	0.00946045	
5.75	0.0143433	
5.751	0.0143433	
5.752	0.010376	
5.753	0.00244141	
5.754	-0.00793457	
5.755	-0.0201416	
5.756	-0.032959	
5.757	-0.0448608	
5.758	-0.0552368	
5.759	-0.062561	
5.76	-0.0656128	
5.761	-0.0643921	
5.762	-0.0588989	
5.763	-0.0500488	
5.764	-0.0390625	
5.765	-0.0265503	
5.766	-0.0140381	
5.767	-0.00244141	
5.768	0.00701904	
5.769	0.0131226	
5.77	0.0149536	
5.771	0.0128174	
5.772	0.00671387	
5.773	-0.00213623	
5.774	-0.0131226	
5.775	-0.0250244	
5.776	-0.0369263	
5.777	-0.0469971	
5.778	-0.0552368	
5.779	-0.0595093	
5.78	-0.0598145	
5.781	-0.0558472	
5.782	-0.0485229	
5.783	-0.0384521	
5.784	-0.0265503	
5.785	-0.0140381	
5.786	-0.00183105	
5.787	0.0088501	
5.788	0.0167847	
5.789	0.0213623	
5.79	0.0213623	
5.791	0.017395	
5.792	0.00946045	
5.793	-0.0012207	
5.794	-0.0131226	
5.795	-0.0253296	
5.796	-0.0369263	
5.797	-0.0463867	
5.798	-0.0527954	
5.799	-0.0552368	
5.8	-0.0534058	
5.801	-0.0473022	
5.802	-0.038147	
5.803	-0.0268555	
5.804	-0.0140381	
5.805	-0.0012207	
5.806	0.010376	
5.807	0.0201416	
5.808	0.0265503	
5.809	0.0286865	
5.81	0.0262451	
5.811	0.0198364	
5.812	0.0106812	
5.813	-0.000610352	
5.814	-0.0128174	
5.815	-0.0247192	
5.816	-0.0350952	
5.817	-0.0430298	
5.818	-0.0473022	
5.819	-0.0473022	
5.82	-0.0427246	
5.821	-0.0341797	
5.822	-0.0228882	
5.823	-0.00976562	
5.824	0.00427246	
5.825	0.0177002	
5.826	0.0292969	
5.827	0.0384521	
5.828	0.043335	
5.829	0.0439453	
5.83	0.039978	
5.831	0.0320435	
5.832	0.0213623	
5.833	0.00854492	
5.834	-0.00488281	
5.835	-0.0180054	
5.836	-0.0296021	
5.837	-0.0387573	
5.838	-0.0439453	
5.839	-0.0448608	
5.84	-0.0415039	
5.841	-0.0344849	
5.842	-0.0247192	
5.843	-0.0131226	
5.844	-0.000915527	
5.845	0.010376	
5.846	0.0198364	
5.847	0.0262451	
5.848	0.0283813	
5.849	0.0259399	
5.85	0.0198364	
5.851	0.0106812	
5.852	-0.000305176	
5.853	-0.012207	
5.854	-0.0238037	
5.855	-0.0341797	
5.856	-0.0421143	
5.857	-0.0466919	
5.858	-0.0469971	
5.859	-0.0436401	
5.86	-0.0366211	
5.861	-0.0268555	
5.862	-0.015564	
5.863	-0.00335693	
5.864	0.00823975	
5.865	0.0183105	
5.866	0.0256348	
5.867	0.0289917	
5.868	0.0280762	
5.869	0.0222778	
5.87	0.0131226	
5.871	0.0012207	
5.872	-0.0125122	
5.873	-0.0262451	
5.874	-0.0390625	
5.875	-0.0500488	
5.876	-0.0576782	
5.877	-0.0610352	
5.878	-0.0595093	
5.879	-0.0537109	
5.88	-0.0445557	
5.881	-0.0326538	
5.882	-0.0189209	
5.883	-0.00457764	
5.884	0.00915527	
5.885	0.0210571	
5.886	0.0299072	
5.887	0.0341797	
5.888	0.0341797	
5.889	0.0296021	
5.89	0.0216675	
5.891	0.0112915	
5.892	-0.000305176	
5.893	-0.012207	
5.894	-0.0228882	
5.895	-0.0314331	
5.896	-0.0369263	
5.897	-0.0384521	
5.898	-0.0357056	
5.899	-0.0296021	
5.9	-0.020752	
5.901	-0.0100708	
5.902	0.00152588	
5.903	0.0128174	
5.904	0.0231934	
5.905	0.0314331	
5.906	0.0366211	
5.907	0.0375366	
5.908	0.0344849	
5.909	0.027771	
5.91	0.0183105	
5.911	0.00732422	
5.912	-0.00457764	
5.913	-0.015564	
5.914	-0.0247192	
5.915	-0.0314331	
5.916	-0.0338745	
5.917	-0.0323486	
5.918	-0.0268555	
5.919	-0.0183105	
5.92	-0.00762939	
5.921	0.00427246	
5.922	0.0164795	
5.923	0.0274658	
5.924	0.0363159	
5.925	0.0424194	
5.926	0.0439453	
5.927	0.0411987	
5.928	0.0341797	
5.929	0.0241089	
5.93	0.0115967	
5.931	-0.00183105	
5.932	-0.015564	
5.933	-0.0274658	
5.934	-0.0375366	
5.935	-0.0436401	
5.936	-0.0457764	
5.937	-0.0430298	
5.938	-0.0366211	
5.939	-0.0265503	
5.94	-0.0143433	
5.941	-0.000610352	
5.942	0.0131226	
5.943	0.0256348	
5.944	0.0357056	
5.945	0.0421143	
5.946	0.0439453	
5.947	0.0415039	
5.948	0.0357056	
5.949	0.0271606	
5.95	0.0170898	
5.951	0.00640869	
5.952	-0.00366211	
5.953	-0.0119019	
5.954	-0.0170898	
5.955	-0.0189209	
5.956	-0.0161743	
5.957	-0.00976562	
5.958	0.000305176	
5.959	0.0128174	
5.96	0.0268555	
5.961	0.0408936	
5.962	0.0543213	
5.963	0.0656128	
5.964	0.0735474	
5.965	0.0778198	
5.966	0.0775146	
5.967	0.0735474	
5.968	0.0668335	
5.969	0.0576782	
5.97	0.0476074	
5.971	0.0369263	
5.972	0.0268555	
5.973	0.0189209	
5.974	0.0134277	
5.975	0.012207	
5.976	0.015564	
5.977	0.0234985	
5.978	0.03479	
5.979	0.0485229	
5.98	0.0634766	
5.981	0.0784302	
5.982	0.0921631	
5.983	0.10376	
5.984	0.112	
5.985	0.115662	
5.986	0.115051	
5.987	0.110168	
5.988	0.102539	
5.989	0.0927734	
5.99	0.0817871	
5.991	0.0714111	
5.992	0.0622559	
5.993	0.0552368	
5.994	0.0512695	
5.995	0.0512695	
5.996	0.0546265	
5.997	0.06073	
5.998	0.0689697	
5.999	0.0787354	
6	0.088501	
6.001	0.0973511	
6.002	0.10437	
6.003	0.108643	
6.004	0.108948	
6.005	0.105286	
6.006	0.0976562	
6.007	0.0866699	
6.008	0.072937	
6.009	0.0576782	
6.01	0.0421143	
6.011	0.0274658	
6.012	0.0149536	
6.013	0.00549316	
6.014	0	
6.015	-0.0012207	
6.016	0.0012207	
6.017	0.00701904	
6.018	0.0149536	
6.019	0.0247192	
6.02	0.0344849	
6.021	0.043335	
6.022	0.0500488	
6.023	0.0537109	
6.024	0.0527954	
6.025	0.0479126	
6.026	0.0390625	
6.027	0.0271606	
6.028	0.0137329	
6.029	-0.000305176	
6.03	-0.0137329	
6.031	-0.0253296	
6.032	-0.0344849	
6.033	-0.0396729	
6.034	-0.0408936	
6.035	-0.0375366	
6.036	-0.0305176	
6.037	-0.0204468	
6.038	-0.00823975	
6.039	0.00457764	
6.04	0.0167847	
6.041	0.0274658	
6.042	0.0354004	
6.043	0.0390625	
6.044	0.0384521	
6.045	0.0335693	
6.046	0.0253296	
6.047	0.0140381	
6.048	0.0012207	
6.049	-0.0128174	
6.05	-0.0262451	
6.051	-0.038147	
6.052	-0.0466919	
6.053	-0.0509644	
6.054	-0.0497437	
6.055	-0.0442505	
6.056	-0.0344849	
6.057	-0.0222778	
6.058	-0.00854492	
6.059	0.00549316	
6.06	0.0183105	
6.061	0.0286865	
6.062	0.0354004	
6.063	0.0375366	
6.064	0.0354004	
6.065	0.0296021	
6.066	0.0213623	
6.067	0.0109863	
6.068	0	
6.069	-0.0109863	
6.07	-0.0204468	
6.071	-0.0280762	
6.072	-0.0323486	
6.073	-0.0335693	
6.074	-0.0308228	
6.075	-0.0250244	
6.076	-0.0164795	
6.077	-0.00579834	
6.078	0.00549316	
6.079	0.0161743	
6.08	0.0256348	
6.081	0.0323486	
6.082	0.0350952	
6.083	0.0335693	
6.084	0.027771	
6.085	0.0183105	
6.086	0.00671387	
6.087	-0.00640869	
6.088	-0.0201416	
6.089	-0.0332642	
6.09	-0.0445557	
6.091	-0.0534058	
6.092	-0.0582886	
6.093	-0.0588989	
6.094	-0.0552368	
6.095	-0.0479126	
6.096	-0.0378418	
6.097	-0.0256348	
6.098	-0.0125122	
6.099	0.000305176	
6.1	0.0112915	
6.101	0.0201416	
6.102	0.0256348	
6.103	0.027771	
6.104	0.0280762	
6.105	0.0268555	
6.106	0.0259399	
6.107	0.0262451	
6.108	0.0302124	
6.109	0.0390625	
6.11	0.0540161	
6.111	0.0769043	
6.112	0.108948	
6.113	0.150146	
6.114	0.2005	
6.115	0.259399	
6.116	0.325317	
6.117	0.397949	
6.118	0.475159	
6.119	0.555115	
6.12	0.635376	
6.121	0.714111	
6.122	0.788269	
6.123	0.856628	
6.124	0.917969	
6.125	0.971985	
6.126	1.01807	
6.127	1.05591	
6.128	1.08521	
6.129	1.10565	
6.13	1.11725	
6.131	1.1203	
6.132	1.11542	
6.133	1.1026	
6.134	1.08185	
6.135	1.05316	
6.136	1.01593	
6.137	0.970459	
6.138	0.915527	
6.139	0.85144	
6.14	0.778198	
6.141	0.696411	
6.142	0.6073	
6.143	0.513611	
6.144	0.417786	
6.145	0.322571	
6.146	0.231018	
6.147	0.144958	
6.148	0.0668335	
6.149	-0.0012207	
6.15	-0.0579834	
6.151	-0.102234	
6.152	-0.134277	
6.153	-0.154419	
6.154	-0.16449	
6.155	-0.166016	
6.156	-0.161133	
6.157	-0.151367	
6.158	-0.139465	
6.159	-0.126343	
6.16	-0.114441	
6.161	-0.10498	
6.162	-0.0985718	
6.163	-0.09552	
6.164	-0.0949097	
6.165	-0.0958252	
6.166	-0.0976562	
6.167	-0.098877	
6.168	-0.098877	
6.169	-0.0967407	
6.17	-0.0918579	
6.171	-0.083313	
6.172	-0.0723267	
6.173	-0.0592041	
6.174	-0.0448608	
6.175	-0.0302124	
6.176	-0.0164795	
6.177	-0.00427246	
6.178	0.00579834	
6.179	0.012207	
6.18	0.0146484	
6.181	0.0125122	
6.182	0.00640869	
6.183	-0.00335693	
6.184	-0.0152588	
6.185	-0.0283813	
6.186	-0.0411987	
6.187	-0.0524902	
6.188	-0.0610352	
6.189	-0.0662231	
6.19	-0.0668335	
6.191	-0.0628662	
6.192	-0.0552368	
6.193	-0.0445557	
6.194	-0.0323486	
6.195	-0.0189209	
6.196	-0.00549316	
6.197	0.00701904	
6.198	0.017395	
6.199	0.0241089	
6.2	0.0265503	
6.201	0.0241089	
6.202	0.0180054	
6.203	0.00854492	
6.204	-0.00305176	
6.205	-0.0152588	
6.206	-0.0271606	
6.207	-0.0375366	
6.208	-0.0454712	
6.209	-0.0494385	
6.21	-0.0494385	
6.211	-0.0454712	
6.212	-0.0378418	
6.213	-0.027771	
6.214	-0.015564	
6.215	-0.00305176	
6.216	0.0088501	
6.217	0.0189209	
6.218	0.0262451	
6.219	0.0299072	
6.22	0.0292969	
6.221	0.0250244	
6.222	0.0170898	
6.223	0.00732422	
6.224	-0.00427246	
6.225	-0.0161743	
6.226	-0.0271606	
6.227	-0.0363159	
6.228	-0.0421143	
6.229	-0.0436401	
6.23	-0.0405884	
6.231	-0.0332642	
6.232	-0.022583	
6.233	-0.0100708	
6.234	0.00366211	
6.235	0.0170898	
6.236	0.0292969	
6.237	0.0393677	
6.238	0.0460815	
6.239	0.0485229	
6.24	0.0463867	
6.241	0.0402832	
6.242	0.0311279	
6.243	0.0204468	
6.244	0.0088501	
6.245	-0.00152588	
6.246	-0.0106812	
6.247	-0.0170898	
6.248	-0.0198364	
6.249	-0.0186157	
6.25	-0.0131226	
6.251	-0.00427246	
6.252	0.00732422	
6.253	0.020752	
6.254	0.0350952	
6.255	0.0488281	
6.256	0.0610352	
6.257	0.0701904	
6.258	0.0750732	
6.259	0.0756836	
6.26	0.0720215	
6.261	0.0656128	
6.262	0.0567627	
6.263	0.0466919	
6.264	0.0366211	
6.265	0.0274658	
6.266	0.0201416	
6.267	0.0158691	
6.268	0.015564	
6.269	0.0195312	
6.27	0.027771	
6.271	0.0390625	
6.272	0.0527954	
6.273	0.0680542	
6.274	0.0830078	
6.275	0.0964355	
6.276	0.107727	
6.277	0.115356	
6.278	0.119019	
6.279	0.118408	
6.28	0.113831	
6.281	0.106812	
6.282	0.0976562	
6.283	0.0875854	
6.284	0.0778198	
6.285	0.0692749	
6.286	0.0631714	
6.287	0.06073	
6.288	0.0628662	
6.289	0.0695801	
6.29	0.0799561	
6.291	0.0933838	
6.292	0.108337	
6.293	0.124207	
6.294	0.139771	
6.295	0.153198	
6.296	0.164185	
6.297	0.171509	
6.298	0.17395	
6.299	0.172119	
6.3	0.166931	
6.301	0.158997	
6.302	0.149841	
6.303	0.140076	
6.304	0.13092	
6.305	0.123596	
6.306	0.118713	
6.307	0.118103	
6.308	0.12207	
6.309	0.130615	
6.31	0.142517	
6.311	0.156555	
6.312	0.171814	
6.313	0.186768	
6.314	0.2005	
6.315	0.211487	
6.316	0.219116	
6.317	0.222473	
6.318	0.221252	
6.319	0.215759	
6.32	0.206909	
6.321	0.195618	
6.322	0.1828	
6.323	0.169983	
6.324	0.158386	
6.325	0.148621	
6.326	0.142212	
6.327	0.140381	
6.328	0.142822	
6.329	0.149231	
6.33	0.158386	
6.331	0.169373	
6.332	0.181274	
6.333	0.192566	
6.334	0.202637	
6.335	0.209961	
6.336	0.213928	
6.337	0.213928	
6.338	0.209656	
6.339	0.202026	
6.34	0.19165	
6.341	0.179749	
6.342	0.166931	
6.343	0.154724	
6.344	0.143738	
6.345	0.135498	
6.346	0.130615	
6.347	0.130005	
6.348	0.133362	
6.349	0.140076	
6.35	0.149231	
6.351	0.159607	
6.352	0.170593	
6.353	0.180054	
6.354	0.187073	
6.355	0.190125	
6.356	0.188904	
6.357	0.183105	
6.358	0.172729	
6.359	0.159302	
6.36	0.143738	
6.361	0.126953	
6.362	0.110168	
6.363	0.0949097	
6.364	0.0823975	
6.365	0.072937	
6.366	0.067749	
6.367	0.0665283	
6.368	0.0689697	
6.369	0.0744629	
6.37	0.0817871	
6.371	0.090332	
6.372	0.0982666	
6.373	0.10437	
6.374	0.107727	
6.375	0.107422	
6.376	0.102844	
6.377	0.0939941	
6.378	0.0814819	
6.379	0.0665283	
6.38	0.0497437	
6.381	0.032959	
6.382	0.0170898	
6.383	0.00305176	
6.384	-0.00793457	
6.385	-0.0149536	
6.386	-0.017395	
6.387	-0.015564	
6.388	-0.0106812	
6.389	-0.00305176	
6.39	0.00610352	
6.391	0.0152588	
6.392	0.0234985	
6.393	0.0299072	
6.394	0.032959	
6.395	0.0320435	
6.396	0.0268555	
6.397	0.0180054	
6.398	0.00610352	
6.399	-0.00793457	
6.4	-0.0231934	
6.401	-0.0378418	
6.402	-0.0509644	
6.403	-0.0610352	
6.404	-0.067749	
6.405	-0.0698853	
6.406	-0.067749	
6.407	-0.0616455	
6.408	-0.0524902	
6.409	-0.0411987	
6.41	-0.0289917	
6.411	-0.017395	
6.412	-0.00671387	
6.413	0.000915527	
6.414	0.00518799	
6.415	0.00488281	
6.416	0.000610352	
6.417	-0.00732422	
6.418	-0.0177002	
6.419	-0.0299072	
6.42	-0.0427246	
6.421	-0.0549316	
6.422	-0.0653076	
6.423	-0.0726318	
6.424	-0.0759888	
6.425	-0.0747681	
6.426	-0.0695801	
6.427	-0.0610352	
6.428	-0.050354	
6.429	-0.038147	
6.43	-0.0256348	
6.431	-0.0137329	
6.432	-0.00396729	
6.433	0.00335693	
6.434	0.00610352	
6.435	0.00488281	
6.436	-0.000915527	
6.437	-0.010376	
6.438	-0.0222778	
6.439	-0.0357056	
6.44	-0.0494385	
6.441	-0.0616455	
6.442	-0.0714111	
6.443	-0.0772095	
6.444	-0.0790405	
6.445	-0.0762939	
6.446	-0.0698853	
6.447	-0.0601196	
6.448	-0.0482178	
6.449	-0.0357056	
6.45	-0.0238037	
6.451	-0.0131226	
6.452	-0.00549316	
6.453	-0.00152588	
6.454	-0.00183105	
6.455	-0.00610352	
6.456	-0.0140381	
6.457	-0.0244141	
6.458	-0.0366211	
6.459	-0.0491333	
6.46	-0.0613403	
6.461	-0.0714111	
6.462	-0.0787354	
6.463	-0.0823975	
6.464	-0.0817871	
6.465	-0.0769043	
6.466	-0.0686646	
6.467	-0.0576782	
6.468	-0.0448608	
6.469	-0.0314331	
6.47	-0.0189209	
6.471	-0.00793457	
6.472	-0.000305176	
6.473	0.00335693	
6.474	0.00274658	
6.475	-0.00244141	
6.476	-0.0106812	
6.477	-0.0216675	
6.478	-0.0338745	
6.479	-0.0466919	
6.48	-0.0585938	
6.481	-0.0683594	
6.482	-0.0750732	
6.483	-0.0772095	
6.484	-0.0750732	
6.485	-0.0692749	
6.486	-0.0604248	
6.487	-0.0497437	
6.488	-0.0378418	
6.489	-0.0259399	
6.49	-0.0146484	
6.491	-0.00518799	
6.492	0.0012207	
6.493	0.00335693	
6.494	0.00152588	
6.495	-0.00427246	
6.496	-0.0128174	
6.497	-0.0234985	
6.498	-0.0350952	
6.499	-0.0463867	
6.5	-0.0558472	
6.501	-0.0628662	
6.502	-0.065918	
6.503	-0.0650024	
6.504	-0.0598145	
6.505	-0.0512695	
6.506	-0.0402832	
6.507	-0.027771	
6.508	-0.0149536	
6.509	-0.00335693	
6.51	0.00640869	
6.511	0.0125122	
6.512	0.0143433	
6.513	0.0115967	
6.514	0.00488281	
6.515	-0.00488281	
6.516	-0.0167847	
6.517	-0.0296021	
6.518	-0.0427246	
6.519	-0.0546265	
6.52	-0.0640869	
6.521	-0.0708008	
6.522	-0.072937	
6.523	-0.0704956	
6.524	-0.0643921	
6.525	-0.0549316	
6.526	-0.043335	
6.527	-0.0305176	
6.528	-0.0180054	
6.529	-0.00701904	
6.53	0.00152588	
6.531	0.00610352	
6.532	0.00610352	
6.533	0.00183105	
6.534	-0.00640869	
6.535	-0.0167847	
6.536	-0.0286865	
6.537	-0.0411987	
6.538	-0.0534058	
6.539	-0.0637817	
6.54	-0.0720215	
6.541	-0.0765991	
6.542	-0.0765991	
6.543	-0.0717163	
6.544	-0.0631714	
6.545	-0.0515747	
6.546	-0.038147	
6.547	-0.0238037	
6.548	-0.0100708	
6.549	0.00213623	
6.55	0.0119019	
6.551	0.0170898	
6.552	0.0177002	
6.553	0.0137329	
6.554	0.00610352	
6.555	-0.00457764	
6.556	-0.0167847	
6.557	-0.0299072	
6.558	-0.0421143	
6.559	-0.0524902	
6.56	-0.0601196	
6.561	-0.0637817	
6.562	-0.0631714	
6.563	-0.0588989	
6.564	-0.0518799	
6.565	-0.0424194	
6.566	-0.0317383	
6.567	-0.0204468	
6.568	-0.00976562	
6.569	-0.000915527	
6.57	0.00488281	
6.571	0.00671387	
6.572	0.00427246	
6.573	-0.00183105	
6.574	-0.010376	
6.575	-0.020752	
6.576	-0.0320435	
6.577	-0.0424194	
6.578	-0.0509644	
6.579	-0.0570679	
6.58	-0.0595093	
6.581	-0.0576782	
6.582	-0.0521851	
6.583	-0.043335	
6.584	-0.0317383	
6.585	-0.0189209	
6.586	-0.00518799	
6.587	0.00732422	
6.588	0.0183105	
6.589	0.0256348	
6.59	0.0289917	
6.591	0.0274658	
6.592	0.0213623	
6.593	0.0115967	
6.594	-0.0012207	
6.595	-0.015564	
6.596	-0.0305176	
6.597	-0.0442505	
6.598	-0.0561523	
6.599	-0.0646973	
6.6	-0.0689697	
6.601	-0.0686646	
6.602	-0.0643921	
6.603	-0.0564575	
6.604	-0.0460815	
6.605	-0.0338745	
6.606	-0.0219727	
6.607	-0.0106812	
6.608	-0.00152588	
6.609	0.00427246	
6.61	0.00610352	
6.611	0.00335693	
6.612	-0.00366211	
6.613	-0.0137329	
6.614	-0.0259399	
6.615	-0.0387573	
6.616	-0.0515747	
6.617	-0.0622559	
6.618	-0.0704956	
6.619	-0.0750732	
6.62	-0.0750732	
6.621	-0.0708008	
6.622	-0.0631714	
6.623	-0.0527954	
6.624	-0.0411987	
6.625	-0.0289917	
6.626	-0.0170898	
6.627	-0.00671387	
6.628	0.000915527	
6.629	0.00518799	
6.63	0.00518799	
6.631	0.0012207	
6.632	-0.00610352	
6.633	-0.0158691	
6.634	-0.0271606	
6.635	-0.0390625	
6.636	-0.0500488	
6.637	-0.0598145	
6.638	-0.0665283	
6.639	-0.0692749	
6.64	-0.0674438	
6.641	-0.0616455	
6.642	-0.0524902	
6.643	-0.0411987	
6.644	-0.0286865	
6.645	-0.0158691	
6.646	-0.00427246	
6.647	0.00518799	
6.648	0.0119019	
6.649	0.0143433	
6.65	0.0125122	
6.651	0.00640869	
6.652	-0.00305176	
6.653	-0.0149536	
6.654	-0.0283813	
6.655	-0.0418091	
6.656	-0.0534058	
6.657	-0.0622559	
6.658	-0.0674438	
6.659	-0.0680542	
6.66	-0.0637817	
6.661	-0.055542	
6.662	-0.0445557	
6.663	-0.0317383	
6.664	-0.0180054	
6.665	-0.00518799	
6.666	0.00610352	
6.667	0.0146484	
6.668	0.0192261	
6.669	0.0195312	
6.67	0.015564	
6.671	0.00793457	
6.672	-0.00183105	
6.673	-0.0131226	
6.674	-0.0250244	
6.675	-0.0360107	
6.676	-0.0454712	
6.677	-0.0527954	
6.678	-0.0561523	
6.679	-0.0552368	
6.68	-0.050354	
6.681	-0.0421143	
6.682	-0.0314331	
6.683	-0.0189209	
6.684	-0.00640869	
6.685	0.00549316	
6.686	0.015564	
6.687	0.0219727	
6.688	0.0244141	
6.689	0.0222778	
6.69	0.0161743	
6.691	0.00671387	
6.692	-0.00518799	
6.693	-0.0180054	
6.694	-0.0305176	
6.695	-0.0421143	
6.696	-0.0512695	
6.697	-0.0567627	
6.698	-0.0582886	
6.699	-0.0552368	
6.7	-0.0482178	
6.701	-0.0384521	
6.702	-0.0265503	
6.703	-0.0131226	
6.704	0	
6.705	0.0119019	
6.706	0.0219727	
6.707	0.0280762	
6.708	0.0305176	
6.709	0.0283813	
6.71	0.022583	
6.711	0.0140381	
6.712	0.00366211	
6.713	-0.00701904	
6.714	-0.0164795	
6.715	-0.0238037	
6.716	-0.0283813	
6.717	-0.0292969	
6.718	-0.0259399	
6.719	-0.0186157	
6.72	-0.00823975	
6.721	0.00427246	
6.722	0.0183105	
6.723	0.0320435	
6.724	0.0448608	
6.725	0.0552368	
6.726	0.0622559	
6.727	0.0646973	
6.728	0.0628662	
6.729	0.0567627	
6.73	0.0476074	
6.731	0.0363159	
6.732	0.0238037	
6.733	0.0115967	
6.734	0.0012207	
6.735	-0.00671387	
6.736	-0.0109863	
6.737	-0.0109863	
6.738	-0.00671387	
6.739	0.00152588	
6.74	0.0125122	
6.741	0.0253296	
6.742	0.0387573	
6.743	0.0515747	
6.744	0.0631714	
6.745	0.072937	
6.746	0.0799561	
6.747	0.0823975	
6.748	0.0808716	
6.749	0.0750732	
6.75	0.0662231	
6.751	0.0552368	
6.752	0.0436401	
6.753	0.0320435	
6.754	0.0219727	
6.755	0.0143433	
6.756	0.00976562	
6.757	0.00946045	
6.758	0.0134277	
6.759	0.0210571	
6.76	0.0314331	
6.761	0.043335	
6.762	0.0558472	
6.763	0.0674438	
6.764	0.0769043	
6.765	0.0827026	
6.766	0.0842285	
6.767	0.0808716	
6.768	0.0732422	
6.769	0.0619507	
6.77	0.0482178	
6.771	0.0323486	
6.772	0.0161743	
6.773	0.000915527	
6.774	-0.012207	
6.775	-0.0219727	
6.776	-0.0271606	
6.777	-0.027771	
6.778	-0.0241089	
6.779	-0.017395	
6.78	-0.00854492	
6.781	0.0012207	
6.782	0.0109863	
6.783	0.0195312	
6.784	0.0256348	
6.785	0.0283813	
6.786	0.0271606	
6.787	0.0219727	
6.788	0.0128174	
6.789	0.0012207	
6.79	-0.0125122	
6.791	-0.0262451	
6.792	-0.0393677	
6.793	-0.0506592	
6.794	-0.0595093	
6.795	-0.0646973	
6.796	-0.0656128	
6.797	-0.0622559	
6.798	-0.055542	
6.799	-0.0457764	
6.8	-0.0344849	
6.801	-0.022583	
6.802	-0.0112915	
6.803	-0.00152588	
6.804	0.00518799	
6.805	0.00823975	
6.806	0.00671387	
6.807	0.000915527	
6.808	-0.00793457	
6.809	-0.0198364	
6.81	-0.0326538	
6.811	-0.0460815	
6.812	-0.0579834	
6.813	-0.0674438	
6.814	-0.0735474	
6.815	-0.0753784	
6.816	-0.072937	
6.817	-0.0665283	
6.818	-0.0570679	
6.819	-0.0454712	
6.82	-0.032959	
6.821	-0.0201416	
6.822	-0.0088501	
6.823	0	
6.824	0.00518799	
6.825	0.00579834	
6.826	0.00213623	
6.827	-0.00518799	
6.828	-0.0152588	
6.829	-0.0271606	
6.83	-0.0396729	
6.831	-0.0515747	
6.832	-0.0619507	
6.833	-0.0701904	
6.834	-0.0744629	
6.835	-0.0750732	
6.836	-0.071106	
6.837	-0.0637817	
6.838	-0.0531006	
6.839	-0.0405884	
6.84	-0.0274658	
6.841	-0.0146484	
6.842	-0.00366211	
6.843	0.00488281	
6.844	0.00946045	
6.845	0.00946045	
6.846	0.00549316	
6.847	-0.00183105	
6.848	-0.0115967	
6.849	-0.0231934	
6.85	-0.0354004	
6.851	-0.0469971	
6.852	-0.0561523	
6.853	-0.0616455	
6.854	-0.0628662	
6.855	-0.0588989	
6.856	-0.0512695	
6.857	-0.0405884	
6.858	-0.0271606	
6.859	-0.012207	
6.86	0.00396729	
6.861	0.0198364	
6.862	0.0354004	
6.863	0.0491333	
6.864	0.06073	
6.865	0.071106	
6.866	0.0808716	
6.867	0.0918579	
6.868	0.10498	
6.869	0.122375	
6.87	0.145264	
6.871	0.175171	
6.872	0.213013	
6.873	0.259705	
6.874	0.316162	
6.875	0.382385	
6.876	0.456848	
6.877	0.53772	
6.878	0.622864	
6.879	0.709229	
6.88	0.794067	
6.881	0.874939	
6.882	0.949097	
6.883	1.01501	
6.884	1.06995	
6.885	1.11328	
6.886	1.14349	
6.887	1.16028	
6.888	1.16333	
6.889	1.15356	
6.89	1.1322	
6.891	1.10046	
6.892	1.05988	
6.893	1.01288	
6.894	0.960083	
6.895	0.90271	
6.896	0.840454	
6.897	0.774231	
6.898	0.704346	
6.899	0.631104	
6.9	0.554504	
6.901	0.475464	
6.902	0.394287	
6.903	0.31189	
6.904	0.229797	
6.905	0.150146	
6.906	0.0750732	
6.907	0.00610352	
6.908	-0.0549316	
6.909	-0.106812	
6.91	-0.148315	
6.911	-0.179749	
6.912	-0.19989	
6.913	-0.209351	
6.914	-0.20874	
6.915	-0.19989	
6.916	-0.184631	
6.917	-0.164185	
6.918	-0.140686	
6.919	-0.116272	
6.92	-0.0924683	
6.921	-0.071106	
6.922	-0.0543213	
6.923	-0.0427246	
6.924	-0.0366211	
6.925	-0.0354004	
6.926	-0.0384521	
6.927	-0.0445557	
6.928	-0.0531006	
6.929	-0.0622559	
6.93	-0.071106	
6.931	-0.0787354	
6.932	-0.0830078	
6.933	-0.0839233	
6.934	-0.0814819	
6.935	-0.0762939	
6.936	-0.0692749	
6.937	-0.06073	
6.938	-0.0515747	
6.939	-0.0427246	
6.94	-0.0354004	
6.941	-0.0299072	
6.942	-0.0280762	
6.943	-0.0296021	
6.944	-0.0344849	
6.945	-0.0418091	
6.946	-0.0509644	
6.947	-0.0613403	
6.948	-0.071106	
6.949	-0.0796509	
